Time BloodFlow 	Volume hart
0	-11.1	-0.06	0.008
0.005	-9.2	-0.10	0.011
0.01	-6.7	-0.13	-0.027
0.015	-3.8	-0.15	-0.018
0.02	-0.9	-0.16	-0.011
0.025	2.3	-0.14	0.007
0.03	5.5	-0.12	0.000
0.035	8.5	-0.07	-0.006
0.04	10.5	-0.02	0.009
0.045	12.0	0.04	-0.001
0.05	14.2	0.11	0.007
0.055	14.4	0.18	0.016
0.06	15.3	0.26	-0.015
0.065	16.0	0.34	-0.027
0.07	17.5	0.42	-0.003
0.075	16.9	0.50	0.011
0.08	15.5	0.58	-0.003
0.085	13.2	0.64	-0.001
0.09	10.8	0.69	0.003
0.095	8.7	0.73	0.024
0.1	7.3	0.77	0.016
0.105	6.1	0.79	-0.008
0.11	4.8	0.81	-0.011
0.115	3.6	0.83	0.003
0.12	2.3	0.83	0.005
0.125	0.8	0.83	0.018
0.13	-0.7	0.83	-0.006
0.135	-2.5	0.81	0.003
0.14	-4.4	0.78	-0.003
0.145	-6.1	0.75	-0.040
0.15	-7.8	0.71	-0.009
0.155	-9.5	0.66	-0.005
0.16	-10.9	0.60	0.005
0.165	-11.8	0.54	0.037
0.17	-12.0	0.47	0.028
0.175	-12.4	0.41	0.029
0.18	-12.7	0.34	0.015
0.185	-13.1	0.28	-0.014
0.19	-13.6	0.21	0.024
0.195	-12.8	0.14	0.047
0.2	-12.4	0.08	0.006
0.205	-12.8	0.02	0.020
0.21	-13.4	-0.05	0.052
0.215	-14.7	-0.13	0.047
0.22	-15.9	-0.20	0.036
0.225	-16.0	-0.28	0.013
0.23	-15.9	-0.36	0.002
0.235	-15.7	-0.44	0.019
0.24	-15.1	-0.51	0.008
0.245	-14.0	-0.58	-0.009
0.25	-12.6	-0.64	-0.014
0.255	-11.5	-0.69	-0.016
0.26	-10.4	-0.74	-0.032
0.265	-9.5	-0.79	-0.006
0.27	-9.0	-0.83	-0.004
0.275	-8.8	-0.87	0.009
0.28	-8.3	-0.90	0.006
0.285	-8.0	-0.94	-0.004
0.29	-7.7	-0.97	-0.027
0.295	-7.3	-1.01	-0.015
0.3	-6.3	-1.03	0.004
0.305	-5.3	-1.05	-0.001
0.31	-4.1	-1.07	0.005
0.315	-3.4	-1.08	0.007
0.32	-3.2	-1.09	-0.003
0.325	-3.0	-1.10	0.005	 
0.33	-2.6	-1.11	0.031
0.335	-2.7	-1.12	0.163
0.34	-3.0	-1.13	0.385
0.345	-3.0	-1.13	0.554
0.35	-2.4	-1.14	0.522
0.355	-2.5	-1.15	0.337
0.36	-2.3	-1.15	0.024
0.365	-2.1	-1.16	-0.154
0.37	-2.3	-1.16	-0.114
0.375	-2.4	-1.17	-0.054
0.38	-2.1	-1.17	-0.009
0.385	-2.6	-1.18	0.065
0.39	-3.5	-1.19	0.080
0.395	-4.1	-1.21	0.074
0.4	-5.0	-1.23	0.041
0.405	-5.5	-1.25	0.050
0.41	-5.3	-1.27	0.066
0.415	-5.3	-1.29	0.068
0.42	-5.2	-1.31	0.052
0.425	-5.9	-1.33	0.037
0.43	-7.2	-1.36	0.012
0.435	-7.2	-1.39	0.027
0.44	-6.5	-1.42	0.041
0.445	-5.4	-1.44	0.024
0.45	-5.2	-1.45	0.016
0.455	-6.0	-1.48	0.015
0.46	-6.6	-1.50	0.052
0.465	-6.8	-1.53	0.046
0.47	-7.0	-1.56	0.056
0.475	-7.5	-1.59	0.057
0.48	-7.5	-1.62	0.048
0.485	-7.9	-1.65	0.075
0.49	-8.2	-1.68	0.082
0.495	-8.1	-1.71	0.062
0.5	-8.2	-1.75	0.078
0.505	-8.3	-1.78	0.077
0.51	-8.3	-1.81	0.051
0.515	-8.0	-1.84	0.066
0.52	-7.8	-1.87	0.097
0.525	-7.5	-1.90	0.098
0.53	-7.3	-1.93	0.103
0.535	-7.2	-1.95	0.123
0.54	-7.1	-1.98	0.102
0.545	-6.7	-2.00	0.103
0.55	-6.0	-2.02	0.126
0.555	-4.7	-2.04	0.154
0.56	-2.3	-2.04	0.191
0.565	0.7	-2.02	0.159
0.57	4.2	-1.99	0.177
0.575	8.3	-1.94	0.199
0.58	13.3	-1.86	0.235
0.585	18.4	-1.76	0.266
0.59	23.7	-1.64	0.264
0.595	28.9	-1.48	0.258
0.6	33.7	-1.31	0.271
0.605	37.8	-1.11	0.294
0.61	41.3	-0.90	0.313
0.615	43.9	-0.68	0.309
0.62	45.6	-0.45	0.309
0.625	46.8	-0.21	0.298
0.63	47.3	0.03	0.288
0.635	47.1	0.26	0.297
0.64	46.0	0.49	0.284
0.645	44.2	0.71	0.249
0.65	41.8	0.92	0.224
0.655	38.8	1.11	0.181
0.66	35.4	1.28	0.164
0.665	31.5	1.43	0.139
0.67	27.1	1.56	0.107
0.675	22.6	1.66	0.064
0.68	18.0	1.74	0.036
0.685	13.5	1.80	0.033
0.69	8.9	1.84	0.045
0.695	4.5	1.85	0.023
0.7	0.2	1.84	0.009
0.705	-6.0	1.80	-0.022
0.71	-9.2	1.75	-0.022
0.715	-12.1	1.68	-0.044
0.72	-14.0	1.60	-0.036
0.725	-13.8	1.52	-0.052
0.73	-14.0	1.45	-0.057
0.735	-15.3	1.36	-0.033
0.74	-16.6	1.27	-0.022
0.745	-16.6	1.18	-0.040
0.75	-15.9	1.10	-0.022
0.755	-15.5	1.02	-0.015
0.76	-15.0	0.94	-0.032
0.765	-14.4	0.86	-0.038
0.77	-13.8	0.79	-0.024
0.775	-13.1	0.72	-0.019
0.78	-12.8	0.65	-0.021
0.785	-12.8	0.58	-0.016
0.79	-13.0	0.51	-0.004
0.795	-12.6	0.45	0.008
0.8	-12.0	0.39	0.011
0.805	-11.1	0.33	-0.014
0.81	-9.8	0.28	-0.020
0.815	-8.1	0.24	-0.006
0.82	-6.4	0.20	-0.004
0.825	-4.6	0.18	-0.011
0.83	-2.6	0.16	-0.003
0.835	-0.7	0.16	-0.011
0.84	1.1	0.16	0.005
0.845	2.9	0.18	0.000
0.85	4.5	0.20	0.001
0.855	5.7	0.23	-0.004
0.86	6.9	0.26	-0.001
0.865	7.9	0.30	0.004
0.87	8.6	0.34	-0.024
0.875	9.0	0.38	-0.018
0.88	9.3	0.43	0.017
0.885	7.8	0.46	0.009
0.89	6.1	0.49	-0.013
0.895	5.9	0.52	-0.043
0.9	5.2	0.54	-0.049
0.905	6.0	0.57	-0.031
0.91	6.8	0.60	-0.029
0.915	5.8	0.63	-0.023
0.92	3.6	0.64	-0.022
0.925	1.9	0.65	-0.008
0.93	0.9	0.65	-0.017
0.935	-0.0	0.65	-0.019
0.94	-1.7	0.64	-0.016
0.945	-3.7	0.61	-0.022
0.95	-5.4	0.58	-0.031
0.955	-7.3	0.54	-0.010
0.96	-9.0	0.50	-0.028
0.965	-10.1	0.44	-0.008
0.97	-11.3	0.38	0.021
0.975	-12.0	0.32	0.003
0.98	-12.1	0.26	-0.016
0.985	-12.9	0.20	-0.003
0.99	-14.0	0.12	-0.013
0.995	-14.9	0.05	-0.018
1	-14.5	-0.02	0.014
1.005	-14.6	-0.10	0.021
1.01	-15.2	-0.17	0.022
1.015	-15.5	-0.25	0.044
1.02	-15.3	-0.32	0.047
1.025	-15.2	-0.40	0.058
1.03	-14.7	-0.47	0.059
1.035	-14.3	-0.54	0.060
1.04	-13.8	-0.60	0.049
1.045	-13.0	-0.67	0.055
1.05	-12.2	-0.72	0.058
1.055	-11.6	-0.78	0.056
1.06	-11.2	-0.83	0.064
1.065	-10.5	-0.88	0.074
1.07	-9.8	-0.92	0.065
1.075	-9.2	-0.96	0.043
1.08	-8.6	-1.00	0.053
1.085	-8.1	-1.04	0.065
1.09	-7.8	-1.07	0.021
1.095	-7.4	-1.10	0.021
1.1	-7.3	-1.13	0.003
1.105	-7.2	-1.17	0.022
1.11	-6.9	-1.19	0.014
1.115	-6.5	-1.22	0.002
1.12	-6.2	-1.25	0.019
1.125	-5.5	-1.27	0.028
1.13	-4.8	-1.28	0.016
1.135	-4.9	-1.30	0.011
1.14	-5.3	-1.32	0.014
1.145	-5.3	-1.34	-0.021
1.15	-5.3	-1.36	-0.020
1.155	-5.3	-1.38	0.006
1.16	-4.8	-1.40	0.009
1.165	-4.4	-1.41	0.021
1.17	-4.8	-1.43	0.039
1.175	-5.0	-1.45	0.039
1.18	-5.0	-1.47	0.072
1.185	-5.3	-1.49	0.123
1.19	-5.5	-1.51	0.289
1.195	-5.3	-1.52	0.501
1.2	-5.1	-1.54	0.591
1.205	-5.4	-1.56	0.482
1.21	-5.4	-1.58	0.262
1.215	-5.5	-1.60	-0.026
1.22	-5.7	-1.62	-0.161
1.225	-5.9	-1.64	-0.122
1.23	-5.9	-1.66	-0.013
1.235	-6.1	-1.69	0.072
1.24	-6.1	-1.71	0.118
1.245	-6.0	-1.73	0.114
1.25	-5.9	-1.75	0.083
1.255	-6.2	-1.77	0.076
1.26	-6.4	-1.80	0.064
1.265	-6.3	-1.82	0.054
1.27	-6.4	-1.84	0.089
1.275	-6.7	-1.87	0.081
1.28	-6.8	-1.89	0.069
1.285	-6.9	-1.92	0.059
1.29	-7.1	-1.94	0.066
1.295	-7.0	-1.97	0.080
1.3	-6.8	-1.99	0.072
1.305	-6.6	-2.01	0.066
1.31	-6.3	-2.03	0.092
1.315	-6.8	-2.06	0.123
1.32	-7.3	-2.09	0.094
1.325	-7.6	-2.11	0.058
1.33	-7.8	-2.14	0.098
1.335	-7.7	-2.17	0.143
1.34	-7.0	-2.19	0.133
1.345	-6.2	-2.21	0.109
1.35	-6.1	-2.23	0.117
1.355	-6.5	-2.25	0.143
1.36	-6.8	-2.28	0.138
1.365	-6.6	-2.30	0.122
1.37	-6.8	-2.32	0.120
1.375	-6.6	-2.34	0.131
1.38	-6.7	-2.36	0.132
1.385	-6.8	-2.39	0.146
1.39	-6.8	-2.41	0.144
1.395	-6.5	-2.43	0.156
1.4	-6.1	-2.45	0.174
1.405	-5.8	-2.46	0.178
1.41	-4.7	-2.47	0.164
1.415	-2.9	-2.48	0.194
1.42	-0.3	-2.47	0.210
1.425	3.2	-2.44	0.223
1.43	7.5	-2.39	0.219
1.435	12.0	-2.32	0.226
1.44	16.7	-2.22	0.271
1.445	21.5	-2.10	0.256
1.45	25.8	-1.96	0.284
1.455	29.5	-1.81	0.302
1.46	32.8	-1.63	0.347
1.465	36.0	-1.44	0.373
1.47	38.4	-1.25	0.355
1.475	39.8	-1.04	0.328
1.48	40.5	-0.83	0.333
1.485	40.4	-0.63	0.321
1.49	39.8	-0.42	0.328
1.495	39.3	-0.23	0.314
1.5	38.2	-0.03	0.283
1.505	35.9	0.15	0.252
1.51	33.0	0.31	0.219
1.515	29.6	0.46	0.196
1.52	25.8	0.58	0.144
1.525	22.0	0.69	0.124
1.53	18.1	0.78	0.120
1.535	13.8	0.84	0.113
1.54	9.5	0.89	0.109
1.545	5.4	0.91	0.078
1.55	1.6	0.91	0.046
1.555	-2.1	0.90	0.036
1.56	-5.5	0.86	0.028
1.565	-8.4	0.82	0.010
1.57	-10.9	0.76	0.011
1.575	-13.0	0.69	-0.002
1.58	-14.6	0.61	0.002
1.585	-15.9	0.53	0.027
1.59	-17.0	0.44	0.028
1.595	-17.5	0.35	0.045
1.6	-17.8	0.26	0.055
1.605	-17.9	0.17	0.025
1.61	-17.4	0.08	0.007
1.615	-16.7	0.00	0.034
1.62	-16.1	-0.08	0.031
1.625	-15.7	-0.16	0.033
1.63	-15.1	-0.23	0.027
1.635	-14.6	-0.30	0.020
1.64	-14.4	-0.37	0.023
1.645	-13.6	-0.44	0.028
1.65	-12.4	-0.50	0.031
1.655	-11.2	-0.55	0.049
1.66	-9.8	-0.60	0.039
1.665	-8.3	-0.64	0.033
1.67	-6.3	-0.67	0.013
1.675	-3.8	-0.68	0.010
1.68	-1.3	-0.69	0.041
1.685	1.5	-0.67	0.063
1.69	5.4	-0.64	0.040
1.695	9.6	-0.59	0.028
1.7	14.1	-0.52	0.026
1.705	16.8	-0.43	0.023
1.71	15.0	-0.36	0.023
1.715	13.1	-0.29	0.022
1.72	10.5	-0.24	0.011
1.725	8.2	-0.19	0.022
1.73	7.4	-0.16	0.027
1.735	7.0	-0.12	0.059
1.74	6.3	-0.09	0.059
1.745	5.4	-0.06	0.034
1.75	4.4	-0.04	0.007
1.755	3.4	-0.02	-0.002
1.76	2.7	-0.01	-0.010
1.765	1.7	0.00	0.000
1.77	0.4	0.00	0.007
1.775	-0.6	0.00	0.003
1.78	-1.4	-0.01	0.008
1.785	-2.6	-0.02	0.026
1.79	-4.1	-0.04	0.025
1.795	-5.5	-0.07	-0.004
1.8	-6.8	-0.10	0.004
1.805	-8.0	-0.14	0.041
1.81	-8.9	-0.18	0.034
1.815	-9.5	-0.23	0.017
1.82	-10.1	-0.28	0.030
1.825	-10.5	-0.33	0.060
1.83	-10.9	-0.38	0.066
1.835	-11.2	-0.44	0.016
1.84	-12.1	-0.50	0.006
1.845	-12.0	-0.55	0.033
1.85	-12.4	-0.61	0.005
1.855	-12.6	-0.67	0.011
1.86	-12.7	-0.73	0.010
1.865	-12.9	-0.79	0.018
1.87	-13.3	-0.86	0.036
1.875	-13.6	-0.92	0.036
1.88	-13.3	-0.98	0.034
1.885	-12.9	-1.04	0.022
1.89	-12.3	-1.10	0.017
1.895	-11.6	-1.15	0.054
1.9	-11.0	-1.20	0.054
1.905	-10.6	-1.25	0.054
1.91	-10.2	-1.29	0.074
1.915	-9.9	-1.34	0.073
1.92	-9.7	-1.38	0.049
1.925	-9.5	-1.42	0.052
1.93	-9.0	-1.46	0.078
1.935	-8.7	-1.49	0.064
1.94	-8.4	-1.53	0.043
1.945	-7.9	-1.56	0.026
1.95	-7.5	-1.59	0.033
1.955	-7.1	-1.62	0.036
1.96	-6.8	-1.64	0.017
1.965	-6.5	-1.67	0.019
1.97	-6.4	-1.69	0.051
1.975	-6.3	-1.71	0.021
1.98	-6.0	-1.73	0.021
1.985	-5.7	-1.75	0.051
1.99	-5.1	-1.77	0.043
1.995	-4.9	-1.79	0.024
2	-4.7	-1.80	0.037
2.005	-4.8	-1.82	0.016
2.01	-4.8	-1.83	0.004
2.015	-5.0	-1.85	-0.002
2.02	-5.5	-1.87	0.012
2.025	-5.7	-1.88	0.043
2.03	-5.7	-1.90	0.033
2.035	-5.8	-1.92	0.028
2.04	-5.9	-1.94	0.023
2.045	-5.7	-1.96	0.057
2.05	-5.5	-1.98	0.173
2.055	-5.6	-2.00	0.319
2.06	-5.5	-2.01	0.453
2.065	-5.3	-2.03	0.504
2.07	-5.2	-2.05	0.401
2.075	-5.3	-2.06	0.206
2.08	-5.2	-2.08	-0.076
2.085	-5.3	-2.10	-0.188
2.09	-5.5	-2.11	-0.141
2.095	-5.4	-2.13	-0.045
2.1	-5.4	-2.14	0.042
2.105	-5.5	-2.16	0.096
2.11	-5.6	-2.18	0.107
2.115	-5.7	-2.20	0.103
2.12	-5.9	-2.21	0.087
2.125	-6.1	-2.23	0.096
2.13	-6.2	-2.25	0.068
2.135	-6.3	-2.27	0.060
2.14	-6.6	-2.30	0.094
2.145	-6.7	-2.32	0.108
2.15	-6.9	-2.34	0.086
2.155	-7.1	-2.36	0.090
2.16	-7.1	-2.39	0.089
2.165	-7.1	-2.41	0.093
2.17	-7.3	-2.44	0.098
2.175	-7.4	-2.46	0.083
2.18	-7.3	-2.49	0.076
2.185	-7.4	-2.51	0.115
2.19	-7.5	-2.54	0.131
2.195	-7.4	-2.56	0.111
2.2	-7.4	-2.58	0.118
2.205	-7.6	-2.61	0.128
2.21	-7.8	-2.64	0.121
2.215	-7.8	-2.66	0.121
2.22	-8.0	-2.69	0.132
2.225	-8.3	-2.72	0.113
2.23	-8.3	-2.74	0.124
2.235	-8.3	-2.77	0.136
2.24	-8.2	-2.80	0.149
2.245	-8.0	-2.82	0.145
2.25	-7.8	-2.85	0.140
2.255	-7.8	-2.87	0.147
2.26	-7.6	-2.90	0.177
2.265	-7.2	-2.92	0.194
2.27	-6.9	-2.94	0.178
2.275	-6.4	-2.96	0.158
2.28	-5.4	-2.97	0.186
2.285	-3.9	-2.97	0.206
2.29	-2.0	-2.97	0.221
2.295	0.8	-2.95	0.230
2.3	4.0	-2.92	0.267
2.305	7.5	-2.86	0.278
2.31	11.3	-2.79	0.283
2.315	15.1	-2.70	0.293
2.32	18.6	-2.60	0.301
2.325	21.8	-2.48	0.328
2.33	24.7	-2.34	0.369
2.335	27.0	-2.19	0.379
2.34	28.8	-2.04	0.379
2.345	30.2	-1.88	0.361
2.35	30.9	-1.71	0.345
2.355	31.1	-1.55	0.348
2.36	30.6	-1.39	0.308
2.365	29.7	-1.23	0.259
2.37	28.2	-1.09	0.233
2.375	26.7	-0.95	0.202
2.38	25.1	-0.82	0.175
2.385	22.6	-0.70	0.158
2.39	19.8	-0.60	0.128
2.395	17.1	-0.51	0.091
2.4	14.3	-0.44	0.103
2.405	11.0	-0.38	0.079
2.41	7.7	-0.34	0.056
2.415	4.5	-0.31	0.048
2.42	1.2	-0.31	0.049
2.425	-2.0	-0.31	0.022
2.43	-5.0	-0.34	0.031
2.435	-7.8	-0.37	0.044
2.44	-9.9	-0.42	0.056
2.445	-11.5	-0.48	0.055
2.45	-12.9	-0.54	0.054
2.455	-14.2	-0.61	0.029
2.46	-14.9	-0.68	0.047
2.465	-15.1	-0.75	0.052
2.47	-15.4	-0.83	0.030
2.475	-15.5	-0.90	0.026
2.48	-15.3	-0.97	0.056
2.485	-15.2	-1.04	0.064
2.49	-15.1	-1.11	0.054
2.495	-14.7	-1.18	0.023
2.5	-14.5	-1.25	0.048
2.505	-14.3	-1.31	0.066
2.51	-13.9	-1.37	0.066
2.515	-13.2	-1.43	0.058
2.52	-12.5	-1.49	0.082
2.525	-11.3	-1.54	0.092
2.53	-9.5	-1.58	0.061
2.535	-7.9	-1.61	0.044
2.54	-6.5	-1.63	0.071
2.545	-4.7	-1.65	0.054
2.55	-2.9	-1.66	0.031
2.555	-1.4	-1.65	0.041
2.56	0.4	-1.64	0.054
2.565	2.1	-1.63	0.034
2.57	3.5	-1.60	0.025
2.575	4.9	-1.57	0.048
2.58	6.1	-1.53	0.045
2.585	7.0	-1.49	0.044
2.59	7.6	-1.44	0.066
2.595	8.2	-1.39	0.043
2.6	8.6	-1.34	0.026
2.605	8.6	-1.29	0.027
2.61	8.5	-1.24	0.035
2.615	8.3	-1.20	0.034
2.62	7.7	-1.15	0.035
2.625	7.1	-1.11	0.063
2.63	6.4	-1.07	0.069
2.635	5.6	-1.04	0.062
2.64	4.5	-1.01	0.018
2.645	3.4	-0.99	0.011
2.65	2.1	-0.97	0.020
2.655	0.6	-0.97	0.041
2.66	-0.7	-0.97	0.048
2.665	-2.0	-0.97	0.049
2.67	-3.4	-0.98	0.064
2.675	-4.7	-1.00	0.071
2.68	-5.7	-1.02	0.057
2.685	-6.8	-1.05	0.037
2.69	-7.8	-1.09	0.039
2.695	-8.5	-1.12	0.045
2.7	-9.2	-1.16	0.064
2.705	-10.0	-1.21	0.048
2.71	-10.6	-1.26	0.010
2.715	-11.0	-1.30	0.008
2.72	-11.5	-1.36	0.021
2.725	-11.7	-1.41	0.051
2.73	-11.7	-1.46	0.050
2.735	-11.7	-1.51	0.023
2.74	-11.7	-1.56	0.043
2.745	-11.5	-1.61	0.077
2.75	-11.3	-1.66	0.088
2.755	-11.1	-1.71	0.088
2.76	-10.8	-1.75	0.108
2.765	-10.2	-1.79	0.103
2.77	-9.7	-1.83	0.084
2.775	-9.1	-1.87	0.071
2.78	-8.5	-1.90	0.111
2.785	-8.0	-1.93	0.104
2.79	-7.7	-1.96	0.078
2.795	-7.1	-1.99	0.086
2.8	-6.5	-2.01	0.114
2.805	-6.1	-2.03	0.090
2.81	-5.5	-2.05	0.122
2.815	-5.0	-2.06	0.159
2.82	-4.7	-2.08	0.117
2.825	-4.5	-2.09	0.073
2.83	-4.3	-2.10	0.064
2.835	-4.2	-2.11	0.057
2.84	-4.2	-2.12	0.039
2.845	-4.0	-2.13	0.032
2.85	-3.9	-2.14	0.052
2.855	-3.8	-2.15	0.061
2.86	-3.7	-2.16	0.097
2.865	-3.6	-2.16	0.057
2.87	-3.7	-2.17	0.028
2.875	-3.6	-2.18	0.036
2.88	-3.5	-2.18	0.056
2.885	-3.7	-2.19	0.041
2.89	-3.8	-2.20	0.051
2.895	-3.9	-2.21	0.048
2.9	-3.9	-2.22	0.054
2.905	-4.1	-2.23	0.049
2.91	-4.2	-2.24	0.044
2.915	-4.1	-2.25	0.035
2.92	-4.2	-2.25	0.088
2.925	-4.2	-2.26	0.177
2.93	-4.1	-2.27	0.346
2.935	-4.2	-2.28	0.535
2.94	-4.4	-2.29	0.626
2.945	-4.3	-2.30	0.500
2.95	-4.3	-2.31	0.246
2.955	-4.3	-2.32	-0.021
2.96	-4.2	-2.33	-0.109
2.965	-4.2	-2.34	-0.076
2.97	-4.3	-2.35	0.018
2.975	-4.4	-2.36	0.086
2.98	-4.4	-2.37	0.124
2.985	-4.5	-2.38	0.129
2.99	-4.4	-2.39	0.121
2.995	-4.3	-2.40	0.114
3	-4.2	-2.41	0.104
3.005	-3.7	-2.42	0.097
3.01	-4.0	-2.43	0.099
3.015	-3.8	-2.43	0.098
3.02	-3.9	-2.44	0.077
3.025	-4.0	-2.45	0.064
3.03	-3.8	-2.46	0.063
3.035	-3.8	-2.46	0.082
3.04	-4.2	-2.47	0.094
3.045	-4.5	-2.48	0.096
3.05	-4.9	-2.49	0.097
3.055	-5.3	-2.51	0.113
3.06	-5.5	-2.52	0.114
3.065	-5.6	-2.54	0.108
3.07	-5.8	-2.55	0.103
3.075	-6.1	-2.57	0.107
3.08	-6.2	-2.59	0.106
3.085	-6.5	-2.61	0.099
3.09	-6.7	-2.63	0.119
3.095	-6.9	-2.65	0.111
3.1	-6.9	-2.67	0.124
3.105	-7.0	-2.69	0.123
3.11	-6.9	-2.72	0.112
3.115	-6.4	-2.73	0.126
3.12	-6.2	-2.75	0.149
3.125	-6.0	-2.77	0.153
3.13	-5.6	-2.78	0.158
3.135	-5.3	-2.79	0.159
3.14	-4.7	-2.80	0.163
3.145	-3.7	-2.81	0.151
3.15	-2.2	-2.81	0.185
3.155	-0.3	-2.79	0.197
3.16	2.5	-2.77	0.196
3.165	5.8	-2.72	0.203
3.17	9.2	-2.66	0.239
3.175	12.9	-2.59	0.263
3.18	16.7	-2.49	0.264
3.185	19.9	-2.38	0.263
3.19	22.6	-2.25	0.266
3.195	25.1	-2.12	0.272
3.2	26.9	-1.97	0.301
3.205	28.0	-1.82	0.319
3.21	28.9	-1.67	0.326
3.215	29.4	-1.51	0.337
3.22	29.4	-1.36	0.341
3.225	29.0	-1.21	0.342
3.23	28.2	-1.06	0.321
3.235	27.0	-0.92	0.310
3.24	25.4	-0.79	0.293
3.245	23.6	-0.67	0.229
3.25	21.4	-0.56	0.166
3.255	18.9	-0.46	0.136
3.26	16.2	-0.38	0.130
3.265	13.6	-0.31	0.143
3.27	10.7	-0.25	0.116
3.275	7.8	-0.21	0.096
3.28	5.2	-0.18	0.082
3.285	2.6	-0.17	0.048
3.29	0.2	-0.17	0.052
3.295	-1.9	-0.18	0.012
3.3	-3.8	-0.19	0.024
3.305	-5.7	-0.22	0.028
3.31	-7.2	-0.26	0.016
3.315	-8.4	-0.30	0.018
3.32	-9.5	-0.34	0.018
3.325	-10.2	-0.39	0.016
3.33	-10.5	-0.44	0.017
3.335	-10.7	-0.49	0.011
3.34	-10.7	-0.55	-0.005
3.345	-10.2	-0.59	0.010
3.35	-9.8	-0.64	0.036
3.355	-9.3	-0.68	0.043
3.36	-8.9	-0.72	0.058
3.365	-8.4	-0.76	0.052
3.37	-7.9	-0.80	0.019
3.375	-7.5	-0.83	-0.007
3.38	-7.2	-0.86	0.002
3.385	-7.0	-0.89	0.022
3.39	-6.7	-0.92	0.034
3.395	-5.9	-0.95	0.044
3.4	-5.1	-0.97	0.044
3.405	-4.2	-0.99	0.024
3.41	-3.1	-1.00	0.009
3.415	-1.8	-1.00	-0.001
3.42	-0.6	-1.00	0.011
3.425	0.6	-0.99	0.036
3.43	1.7	-0.98	0.048
3.435	2.4	-0.96	0.050
3.44	3.3	-0.94	0.051
3.445	3.9	-0.91	0.045
3.45	4.2	-0.89	0.035
3.455	4.5	-0.86	0.029
3.46	5.2	-0.83	0.036
3.465	5.7	-0.80	0.034
3.47	5.8	-0.77	0.019
3.475	5.9	-0.73	0.015
3.48	5.8	-0.70	0.019
3.485	5.6	-0.67	0.001
3.49	5.2	-0.64	0.004
3.495	5.1	-0.61	-0.013
3.5	4.7	-0.58	0.019
3.505	4.0	-0.56	0.014
3.51	3.3	-0.54	0.006
3.515	2.4	-0.53	0.029
3.52	1.7	-0.52	0.042
3.525	0.2	-0.51	0.029
3.53	-0.6	-0.51	0.033
3.535	-1.5	-0.52	-0.015
3.54	-2.2	-0.53	0.000
3.545	-3.1	-0.54	0.032
3.55	-4.1	-0.56	0.019
3.555	-5.0	-0.58	0.001
3.56	-5.8	-0.61	-0.004
3.565	-6.6	-0.64	0.021
3.57	-7.4	-0.67	0.037
3.575	-8.3	-0.71	0.028
3.58	-8.9	-0.75	0.018
3.585	-9.5	-0.79	0.028
3.59	-10.0	-0.84	0.035
3.595	-10.1	-0.88	0.031
3.6	-10.1	-0.93	0.007
3.605	-10.2	-0.98	0.010
3.61	-10.0	-1.02	0.036
3.615	-9.7	-1.06	0.029
3.62	-9.5	-1.11	0.016
3.625	-9.2	-1.15	0.010
3.63	-8.8	-1.19	-0.001
3.635	-8.4	-1.22	-0.012
3.64	-8.1	-1.26	-0.007
3.645	-7.7	-1.29	0.009
3.65	-7.4	-1.32	0.030
3.655	-7.2	-1.35	0.026
3.66	-6.9	-1.38	0.038
3.665	-6.5	-1.40	0.054
3.67	-6.3	-1.43	0.063
3.675	-6.0	-1.45	0.030
3.68	-5.6	-1.47	0.036
3.685	-5.4	-1.49	0.048
3.69	-5.2	-1.51	0.077
3.695	-5.0	-1.53	0.086
3.7	-4.8	-1.54	0.077
3.705	-4.7	-1.56	0.040
3.71	-4.4	-1.57	0.050
3.715	-4.2	-1.58	0.035
3.72	-4.1	-1.60	0.058
3.725	-4.0	-1.61	0.093
3.73	-3.9	-1.62	0.095
3.735	-3.8	-1.63	0.087
3.74	-3.8	-1.64	0.062
3.745	-3.7	-1.65	0.031
3.75	-3.6	-1.66	0.004
3.755	-3.7	-1.67	0.013
3.76	-3.5	-1.68	0.032
3.765	-3.1	-1.69	0.044
3.77	-2.8	-1.69	0.026
3.775	-3.2	-1.70	0.027
3.78	-3.2	-1.71	0.040
3.785	-3.3	-1.72	0.039
3.79	-3.4	-1.73	0.033
3.795	-3.4	-1.73	0.049
3.8	-3.5	-1.74	0.030
3.805	-3.6	-1.75	0.022
3.81	-3.6	-1.76	0.016
3.815	-3.6	-1.77	0.025
3.82	-3.8	-1.78	0.014
3.825	-3.9	-1.79	0.041
3.83	-4.0	-1.80	0.072
3.835	-4.2	-1.82	0.089
3.84	-4.5	-1.83	0.181
3.845	-4.5	-1.84	0.369
3.85	-4.6	-1.86	0.546
3.855	-4.7	-1.87	0.581
3.86	-4.8	-1.88	0.459
3.865	-4.8	-1.90	0.215
3.87	-4.9	-1.91	-0.049
3.875	-4.9	-1.93	-0.122
3.88	-4.8	-1.94	-0.076
3.885	-4.7	-1.96	-0.006
3.89	-4.6	-1.97	0.077
3.895	-4.3	-1.98	0.124
3.9	-4.2	-1.99	0.149
3.905	-4.2	-2.00	0.114
3.91	-4.1	-2.01	0.088
3.915	-4.0	-2.02	0.076
3.92	-4.1	-2.03	0.082
3.925	-4.0	-2.04	0.088
3.93	-3.5	-2.05	0.096
3.935	-3.8	-2.06	0.087
3.94	-4.1	-2.07	0.077
3.945	-4.0	-2.08	0.066
3.95	-4.2	-2.09	0.091
3.955	-4.6	-2.10	0.098
3.96	-4.8	-2.12	0.089
3.965	-5.0	-2.13	0.070
3.97	-5.2	-2.15	0.100
3.975	-5.5	-2.16	0.105
3.98	-5.6	-2.18	0.103
3.985	-5.8	-2.20	0.094
3.99	-6.0	-2.22	0.095
3.995	-6.1	-2.24	0.086
4	-6.2	-2.26	0.087
4.005	-6.4	-2.28	0.099
4.01	-6.4	-2.30	0.106
4.015	-6.3	-2.32	0.108
4.02	-6.4	-2.34	0.134
4.025	-6.3	-2.36	0.121
4.03	-6.0	-2.38	0.126
4.035	-5.7	-2.39	0.142
4.04	-5.5	-2.41	0.107
4.045	-5.0	-2.42	0.103
4.05	-4.5	-2.43	0.136
4.055	-3.9	-2.44	0.156
4.06	-2.8	-2.44	0.147
4.065	-1.2	-2.44	0.146
4.07	0.8	-2.42	0.194
4.075	3.5	-2.39	0.214
4.08	6.7	-2.34	0.207
4.085	9.8	-2.28	0.226
4.09	12.8	-2.21	0.256
4.095	15.8	-2.12	0.259
4.1	18.3	-2.02	0.271
4.105	20.3	-1.91	0.274
4.11	21.9	-1.79	0.286
4.115	22.6	-1.66	0.280
4.12	23.6	-1.54	0.316
4.125	23.9	-1.41	0.364
4.13	25.0	-1.28	0.357
4.135	25.0	-1.15	0.336
4.14	24.6	-1.02	0.310
4.145	23.8	-0.90	0.307
4.15	22.4	-0.78	0.302
4.155	20.7	-0.67	0.263
4.16	19.1	-0.57	0.243
4.165	17.1	-0.48	0.227
4.17	14.8	-0.41	0.209
4.175	12.4	-0.34	0.188
4.18	9.9	-0.29	0.158
4.185	7.4	-0.25	0.134
4.19	5.0	-0.23	0.095
4.195	2.7	-0.21	0.064
4.2	0.5	-0.21	0.042
4.205	-1.7	-0.22	0.044
4.21	-3.4	-0.23	0.034
4.215	-4.9	-0.26	0.015
4.22	-6.3	-0.29	0.028
4.225	-7.3	-0.32	0.004
4.23	-7.4	-0.36	0.001
4.235	-7.8	-0.39	0.020
4.24	-8.5	-0.43	0.010
4.245	-8.7	-0.48	0.005
4.25	-8.7	-0.52	0.031
4.255	-8.6	-0.56	0.002
4.26	-8.2	-0.60	-0.030
4.265	-7.7	-0.63	-0.015
4.27	-7.2	-0.66	0.002
4.275	-6.7	-0.69	0.000
4.28	-6.1	-0.72	0.032
4.285	-5.0	-0.74	0.051
4.29	-5.0	-0.76	0.048
4.295	-5.0	-0.79	0.039
4.3	-5.0	-0.81	0.017
4.305	-4.9	-0.83	0.009
4.31	-4.4	-0.85	0.031
4.315	-3.6	-0.86	0.018
4.32	-2.8	-0.87	0.016
4.325	-2.0	-0.87	0.037
4.33	-0.6	-0.87	0.033
4.335	2.0	-0.86	0.033
4.34	3.2	-0.84	0.047
4.345	3.4	-0.82	0.037
4.35	3.9	-0.79	0.031
4.355	4.3	-0.77	0.043
4.36	4.8	-0.74	0.029
4.365	4.8	-0.71	0.037
4.37	4.7	-0.69	0.054
4.375	4.8	-0.66	0.058
4.38	5.1	-0.63	0.056
4.385	5.2	-0.60	0.028
4.39	5.2	-0.57	0.033
4.395	5.2	-0.54	0.020
4.4	5.9	-0.51	0.002
4.405	5.6	-0.48	0.011
4.41	5.0	-0.45	-0.001
4.415	4.5	-0.43	0.006
4.42	3.7	-0.41	0.030
4.425	2.7	-0.39	0.036
4.43	1.9	-0.38	0.031
4.435	1.0	-0.37	0.028
4.44	0.0	-0.37	0.022
4.445	-0.9	-0.37	0.025
4.45	-1.6	-0.38	0.037
4.455	-2.5	-0.39	0.035
4.46	-3.1	-0.40	0.035
4.465	-3.6	-0.42	0.018
4.47	-4.1	-0.44	0.000
4.475	-4.9	-0.46	0.010
4.48	-5.6	-0.49	0.043
4.485	-6.3	-0.52	0.060
4.49	-6.9	-0.55	0.042
4.495	-7.2	-0.58	0.048
4.5	-7.4	-0.62	0.034
4.505	-7.8	-0.65	0.036
4.51	-8.0	-0.69	0.071
4.515	-8.0	-0.72	0.064
4.52	-8.2	-0.76	0.044
4.525	-8.2	-0.80	0.026
4.53	-7.9	-0.83	0.024
4.535	-7.8	-0.87	0.032
4.54	-7.7	-0.90	0.040
4.545	-7.3	-0.94	0.018
4.55	-7.0	-0.97	0.006
4.555	-6.9	-1.00	-0.008
4.56	-6.1	-1.02	0.028
4.565	-5.9	-1.05	0.028
4.57	-5.8	-1.07	0.047
4.575	-5.7	-1.09	0.048
4.58	-5.4	-1.11	0.064
4.585	-5.2	-1.13	0.077
4.59	-5.1	-1.15	0.068
4.595	-4.7	-1.17	0.026
4.6	-4.4	-1.19	0.050
4.605	-4.3	-1.20	0.049
4.61	-4.0	-1.22	0.059
4.615	-3.7	-1.23	0.060
4.62	-3.7	-1.24	0.060
4.625	-3.7	-1.25	0.059
4.63	-3.5	-1.26	0.080
4.635	-3.4	-1.28	0.071
4.64	-3.4	-1.29	0.061
4.645	-3.3	-1.30	0.066
4.65	-3.2	-1.31	0.042
4.655	-3.4	-1.32	0.022
4.66	-3.2	-1.33	0.011
4.665	-3.1	-1.34	0.015
4.67	-3.3	-1.34	0.031
4.675	-3.3	-1.35	0.023
4.68	-3.3	-1.36	0.029
4.685	-3.4	-1.37	0.027
4.69	-3.5	-1.38	0.034
4.695	-3.4	-1.39	0.059
4.7	-3.3	-1.40	0.033
4.705	-3.5	-1.41	0.009
4.71	-3.5	-1.42	0.004
4.715	-3.4	-1.43	0.022
4.72	-3.6	-1.45	0.033
4.725	-2.5	-1.45	0.018
4.73	-2.4	-1.46	0.018
4.735	-3.0	-1.46	0.034
4.74	-3.5	-1.47	0.069
4.745	-3.6	-1.48	0.119
4.75	-3.6	-1.49	0.223
4.755	-3.8	-1.51	0.422
4.76	-3.8	-1.52	0.552
4.765	-4.0	-1.53	0.529
4.77	-4.1	-1.54	0.378
4.775	-4.1	-1.56	0.111
4.78	-4.0	-1.57	-0.135
4.785	-4.1	-1.58	-0.148
4.79	-4.2	-1.59	-0.072
4.795	-4.2	-1.61	0.028
4.8	-4.2	-1.62	0.083
4.805	-4.2	-1.63	0.104
4.81	-4.1	-1.64	0.099
4.815	-4.1	-1.66	0.050
4.82	-4.3	-1.67	0.054
4.825	-4.3	-1.68	0.058
4.83	-4.3	-1.70	0.050
4.835	-4.4	-1.71	0.049
4.84	-4.5	-1.72	0.053
4.845	-4.5	-1.74	0.067
4.85	-4.5	-1.75	0.077
4.855	-4.8	-1.77	0.086
4.86	-4.8	-1.78	0.107
4.865	-4.9	-1.80	0.075
4.87	-5.0	-1.81	0.065
4.875	-5.0	-1.83	0.087
4.88	-5.0	-1.85	0.071
4.885	-5.0	-1.86	0.067
4.89	-5.0	-1.88	0.110
4.895	-4.1	-1.89	0.110
4.9	-4.0	-1.90	0.111
4.905	-4.2	-1.91	0.119
4.91	-4.5	-1.92	0.085
4.915	-4.7	-1.94	0.108
4.92	-4.9	-1.95	0.123
4.925	-4.8	-1.97	0.144
4.93	-4.7	-1.98	0.146
4.935	-4.7	-1.99	0.131
4.94	-4.7	-2.01	0.154
4.945	-4.6	-2.02	0.145
4.95	-4.5	-2.03	0.163
4.955	-4.5	-2.05	0.159
4.96	-4.3	-2.06	0.119
4.965	-3.9	-2.07	0.126
4.97	-3.4	-2.07	0.171
4.975	-2.3	-2.07	0.192
4.98	-0.6	-2.07	0.208
4.985	1.4	-2.05	0.203
4.99	3.7	-2.02	0.195
4.995	6.4	-1.98	0.212
5	9.2	-1.92	0.229
5.005	11.8	-1.85	0.278
5.01	14.3	-1.77	0.289
5.015	16.6	-1.68	0.297
5.02	18.4	-1.58	0.329
5.025	20.0	-1.47	0.348
5.03	21.3	-1.36	0.351
5.035	22.1	-1.24	0.346
5.04	22.5	-1.12	0.328
5.045	22.8	-1.00	0.357
5.05	22.6	-0.89	0.366
5.055	21.8	-0.77	0.318
5.06	21.0	-0.66	0.304
5.065	19.8	-0.56	0.304
5.07	18.0	-0.47	0.255
5.075	16.3	-0.38	0.206
5.08	14.5	-0.31	0.171
5.085	12.6	-0.25	0.128
5.09	10.5	-0.19	0.117
5.095	8.5	-0.15	0.083
5.1	6.5	-0.12	0.070
5.105	4.3	-0.09	0.044
5.11	2.3	-0.08	0.045
5.115	0.5	-0.08	0.034
5.12	-1.3	-0.08	0.002
5.125	-2.9	-0.10	-0.025
5.13	-4.3	-0.12	-0.016
5.135	-5.5	-0.15	-0.001
5.14	-6.6	-0.18	-0.001
5.145	-7.3	-0.21	0.005
5.15	-7.8	-0.25	-0.010
5.155	-8.3	-0.29	-0.003
5.16	-8.2	-0.33	0.004
5.165	-8.1	-0.37	0.001
5.17	-8.1	-0.41	0.015
5.175	-7.7	-0.45	0.009
5.18	-7.2	-0.48	0.001
5.185	-7.0	-0.51	-0.019
5.19	-6.7	-0.54	0.011
5.195	-6.4	-0.57	0.019
5.2	-6.3	-0.60	0.015
5.205	-6.3	-0.63	0.021
5.21	-5.9	-0.66	0.023
5.215	-5.5	-0.68	0.001
5.22	-5.0	-0.70	0.030
5.225	-4.3	-0.72	0.031
5.23	-3.2	-0.73	0.016
5.235	-2.2	-0.74	0.034
5.24	-1.3	-0.74	0.041
5.245	-0.2	-0.74	0.018
5.25	0.9	-0.73	0.016
5.255	1.6	-0.72	0.038
5.26	2.5	-0.70	0.048
5.265	3.3	-0.68	0.020
5.27	3.8	-0.66	-0.012
5.275	4.4	-0.64	-0.011
5.28	4.9	-0.61	-0.010
5.285	5.1	-0.58	0.006
5.29	5.4	-0.55	0.014
5.295	5.7	-0.52	-0.005
5.3	5.9	-0.49	0.001
5.305	5.8	-0.45	0.013
5.31	5.8	-0.42	0.029
5.315	5.6	-0.39	0.035
5.32	5.1	-0.37	0.001
5.325	4.6	-0.34	-0.006
5.33	4.0	-0.32	-0.003
5.335	3.3	-0.30	0.007
5.34	2.5	-0.29	0.029
5.345	2.0	-0.28	0.043
5.35	1.1	-0.27	0.024
5.355	0.2	-0.27	0.012
5.36	-0.6	-0.27	0.019
5.365	-1.3	-0.27	0.043
5.37	-2.2	-0.28	0.037
5.375	-2.9	-0.30	0.031
5.38	-3.5	-0.31	0.039
5.385	-4.2	-0.33	0.011
5.39	-4.8	-0.35	0.013
5.395	-5.3	-0.38	0.039
5.4	-5.8	-0.41	0.057
5.405	-6.3	-0.44	0.049
5.41	-6.6	-0.47	0.030
5.415	-6.8	-0.50	0.016
5.42	-7.1	-0.53	0.015
5.425	-7.2	-0.56	0.043
5.43	-7.2	-0.60	0.074
5.435	-7.3	-0.63	0.042
5.44	-7.3	-0.66	0.027
5.445	-7.1	-0.70	0.038
5.45	-6.8	-0.73	0.016
5.455	-6.9	-0.76	0.004
5.46	-6.6	-0.79	-0.005
5.465	-6.2	-0.81	0.011
5.47	-6.0	-0.84	0.041
5.475	-5.6	-0.86	0.061
5.48	-5.3	-0.89	0.056
5.485	-5.1	-0.91	0.032
5.49	-4.8	-0.93	0.043
5.495	-4.4	-0.94	0.058
5.5	-4.1	-0.96	0.084
5.505	-3.9	-0.97	0.083
5.51	-3.7	-0.99	0.073
5.515	-3.4	-1.00	0.094
5.52	-3.4	-1.01	0.071
5.525	-3.3	-1.02	0.041
5.53	-3.2	-1.03	0.069
5.535	-3.1	-1.04	0.081
5.54	-3.1	-1.05	0.096
5.545	-3.0	-1.06	0.072
5.55	-2.9	-1.07	0.065
5.555	-3.0	-1.08	0.028
5.56	-2.8	-1.09	0.039
5.565	-2.7	-1.10	0.036
5.57	-2.8	-1.11	0.014
5.575	-2.7	-1.12	0.006
5.58	-2.5	-1.12	0.014
5.585	-2.5	-1.13	0.040
5.59	-2.6	-1.14	0.043
5.595	-2.6	-1.14	0.047
5.6	-2.5	-1.15	0.056
5.605	-2.7	-1.16	0.016
5.61	-2.6	-1.17	0.018
5.615	-2.6	-1.17	0.039
5.62	-2.7	-1.18	0.048
5.625	-2.9	-1.19	0.049
5.63	-2.9	-1.20	0.059
5.635	-3.0	-1.21	0.070
5.64	-3.1	-1.22	0.088
5.645	-3.0	-1.23	0.112
5.65	-3.0	-1.23	0.169
5.655	-3.1	-1.24	0.296
5.66	-3.1	-1.25	0.443
5.665	-3.1	-1.26	0.526
5.67	-3.2	-1.27	0.440
5.675	-3.2	-1.28	0.258
5.68	-3.0	-1.29	-0.031
5.685	-3.0	-1.30	-0.181
5.69	-3.1	-1.31	-0.142
5.695	-2.9	-1.32	-0.046
5.7	-2.9	-1.32	0.038
5.705	-3.0	-1.33	0.084
5.71	-2.9	-1.34	0.119
5.715	-2.8	-1.35	0.110
5.72	-2.9	-1.36	0.094
5.725	-2.9	-1.36	0.073
5.73	-2.9	-1.37	0.081
5.735	-3.0	-1.38	0.074
5.74	-3.3	-1.39	0.072
5.745	-3.3	-1.40	0.081
5.75	-3.4	-1.41	0.107
5.755	-3.6	-1.42	0.115
5.76	-3.7	-1.43	0.085
5.765	-3.7	-1.44	0.056
5.77	-4.0	-1.45	0.064
5.775	-4.1	-1.47	0.089
5.78	-4.0	-1.48	0.088
5.785	-3.9	-1.49	0.082
5.79	-4.0	-1.50	0.092
5.795	-3.9	-1.52	0.094
5.8	-3.9	-1.53	0.087
5.805	-4.1	-1.54	0.084
5.81	-4.1	-1.55	0.076
5.815	-4.3	-1.57	0.098
5.82	-4.6	-1.58	0.114
5.825	-4.7	-1.60	0.149
5.83	-4.6	-1.61	0.142
5.835	-4.6	-1.63	0.157
5.84	-4.4	-1.64	0.126
5.845	-4.1	-1.66	0.128
5.85	-4.2	-1.67	0.148
5.855	-4.2	-1.68	0.174
5.86	-4.0	-1.69	0.176
5.865	-3.8	-1.70	0.169
5.87	-3.6	-1.71	0.184
5.875	-3.3	-1.72	0.170
5.88	-2.6	-1.72	0.168
5.885	-1.9	-1.72	0.190
5.89	-0.9	-1.72	0.204
5.895	0.7	-1.71	0.251
5.9	2.6	-1.69	0.272
5.905	4.7	-1.66	0.302
5.91	7.0	-1.61	0.309
5.915	9.4	-1.56	0.333
5.92	11.5	-1.49	0.348
5.925	13.5	-1.42	0.362
5.93	15.4	-1.33	0.357
5.935	16.9	-1.24	0.343
5.94	18.2	-1.14	0.345
5.945	19.4	-1.04	0.350
5.95	20.1	-0.94	0.359
5.955	20.4	-0.83	0.385
5.96	20.5	-0.72	0.338
5.965	20.2	-0.62	0.314
5.97	19.5	-0.52	0.269
5.975	18.5	-0.42	0.224
5.98	17.5	-0.33	0.195
5.985	16.2	-0.25	0.149
5.99	14.6	-0.18	0.143
5.995	12.9	-0.11	0.109
6	11.1	-0.05	0.089
6.005	9.0	-0.01	0.074
6.01	7.2	0.03	0.072
6.015	5.4	0.05	0.071
6.02	3.4	0.07	0.064
6.025	1.6	0.08	0.049
6.03	-0.1	0.08	0.014
6.035	-1.7	0.07	0.000
6.04	-3.2	0.05	0.029
6.045	-4.3	0.03	0.027
6.05	-5.1	0.00	-0.003
6.055	-5.9	-0.03	-0.028
6.06	-6.4	-0.06	-0.021
6.065	-6.8	-0.09	0.019
6.07	-7.2	-0.13	0.007
6.075	-7.4	-0.16	-0.009
6.08	-7.3	-0.20	0.010
6.085	-7.4	-0.23	0.029
6.09	-7.4	-0.27	0.028
6.095	-7.2	-0.30	0.001
6.1	-7.0	-0.34	0.030
6.105	-6.9	-0.37	0.039
6.11	-6.8	-0.40	0.025
6.115	-6.6	-0.43	0.033
6.12	-6.3	-0.46	0.037
6.125	-5.9	-0.49	0.029
6.13	-5.3	-0.51	0.035
6.135	-4.5	-0.53	0.044
6.14	-3.6	-0.55	0.025
6.145	-2.4	-0.56	0.002
6.15	-1.2	-0.56	0.022
6.155	-0.1	-0.56	0.021
6.16	1.2	-0.55	0.026
6.165	2.5	-0.54	0.016
6.17	3.3	-0.52	0.024
6.175	4.2	-0.49	0.012
6.18	5.1	-0.47	-0.012
6.185	5.7	-0.43	0.012
6.19	6.3	-0.40	0.033
6.195	6.9	-0.36	0.022
6.2	7.3	-0.33	0.019
6.205	7.6	-0.29	0.023
6.21	7.8	-0.25	0.026
6.215	7.9	-0.21	0.019
6.22	7.7	-0.17	0.010
6.225	7.4	-0.13	0.018
6.23	7.1	-0.09	0.043
6.235	6.5	-0.06	0.028
6.24	5.7	-0.03	0.031
6.245	5.2	-0.00	0.021
6.25	4.2	0.02	0.036
6.255	3.2	0.03	0.057
6.26	2.4	0.04	0.041
6.265	1.5	0.05	0.039
6.27	0.5	0.05	0.037
6.275	-0.5	0.05	0.030
6.28	-1.3	0.04	0.029
6.285	-2.1	0.03	0.033
6.29	-2.9	0.02	0.033
6.295	-3.5	0.00	0.046
6.3	-4.0	-0.02	0.036
6.305	-4.5	-0.04	0.008
6.31	-5.0	-0.06	0.019
6.315	-5.4	-0.09	0.005
6.32	-5.9	-0.12	0.028
6.325	-6.2	-0.15	0.054
6.33	-6.3	-0.18	0.053
6.335	-6.4	-0.21	0.047
6.34	-6.4	-0.24	0.055
6.345	-6.3	-0.27	0.064
6.35	-6.2	-0.30	0.039
6.355	-6.1	-0.33	-0.003
6.36	-5.9	-0.36	0.004
6.365	-5.7	-0.39	0.014
6.37	-5.5	-0.41	0.017
6.375	-5.2	-0.44	0.039
6.38	-4.9	-0.46	0.043
6.385	-4.7	-0.48	0.060
6.39	-4.4	-0.50	0.067
6.395	-4.0	-0.52	0.072
6.4	-3.7	-0.53	0.076
6.405	-3.6	-0.55	0.070
6.41	-3.1	-0.56	0.086
6.415	-2.8	-0.57	0.091
6.42	-2.6	-0.58	0.066
6.425	-2.3	-0.59	0.041
6.43	-2.1	-0.60	0.066
6.435	-1.9	-0.61	0.069
6.44	-1.8	-0.61	0.065
6.445	-1.6	-0.62	0.078
6.45	-1.5	-0.62	0.098
6.455	-1.5	-0.63	0.069
6.46	-1.3	-0.63	0.045
6.465	-1.2	-0.63	0.028
6.47	-1.2	-0.63	0.051
6.475	-1.3	-0.64	0.066
6.48	-1.4	-0.64	0.096
6.485	-1.5	-0.65	0.061
6.49	-1.7	-0.65	0.036
6.495	-1.7	-0.66	0.034
6.5	-1.7	-0.66	0.038
6.505	-1.8	-0.67	0.043
6.51	-1.8	-0.67	0.058
6.515	-1.8	-0.68	0.076
6.52	-1.8	-0.68	0.063
6.525	-1.8	-0.69	0.031
6.53	-1.7	-0.70	0.034
6.535	-1.8	-0.70	0.060
6.54	-1.9	-0.71	0.071
6.545	-1.9	-0.71	0.068
6.55	-1.8	-0.72	0.100
6.555	-2.0	-0.72	0.222
6.56	-2.0	-0.73	0.421
6.565	-1.9	-0.74	0.572
6.57	-2.1	-0.74	0.565
6.575	-2.0	-0.75	0.410
6.58	-1.9	-0.76	0.149
6.585	-2.0	-0.76	-0.092
6.59	-2.0	-0.77	-0.136
6.595	-2.0	-0.77	-0.070
6.6	-2.1	-0.78	0.033
6.605	-2.3	-0.79	0.106
6.61	-2.2	-0.80	0.104
6.615	-2.2	-0.80	0.101
6.62	-2.3	-0.81	0.120
6.625	-2.3	-0.82	0.118
6.63	-2.1	-0.82	0.120
6.635	-2.2	-0.83	0.123
6.64	-2.3	-0.84	0.089
6.645	-2.0	-0.84	0.103
6.65	-2.1	-0.85	0.092
6.655	-2.4	-0.86	0.100
6.66	-2.1	-0.86	0.139
6.665	-2.0	-0.87	0.128
6.67	-2.3	-0.88	0.101
6.675	-2.6	-0.89	0.086
6.68	-2.8	-0.89	0.088
6.685	-3.2	-0.91	0.114
6.69	-3.5	-0.92	0.124
6.695	-3.4	-0.93	0.119
6.7	-3.3	-0.94	0.120
6.705	-3.5	-0.96	0.121
6.71	-3.5	-0.97	0.122
6.715	-3.4	-0.98	0.100
6.72	-3.6	-0.99	0.096
6.725	-3.5	-1.01	0.117
6.73	-3.3	-1.02	0.140
6.735	-3.2	-1.03	0.129
6.74	-3.2	-1.04	0.119
6.745	-3.1	-1.05	0.121
6.75	-2.7	-1.06	0.151
6.755	-2.7	-1.07	0.170
6.76	-2.7	-1.07	0.147
6.765	-2.4	-1.08	0.173
6.77	-2.2	-1.09	0.200
6.775	-1.7	-1.09	0.182
6.78	-0.8	-1.09	0.186
6.785	0.4	-1.08	0.184
6.79	2.1	-1.06	0.191
6.795	4.3	-1.04	0.199
6.8	6.7	-1.00	0.215
6.805	9.2	-0.95	0.254
6.81	11.8	-0.88	0.271
6.815	14.2	-0.81	0.278
6.82	16.4	-0.72	0.301
6.825	18.4	-0.63	0.296
6.83	20.1	-0.52	0.322
6.835	21.4	-0.41	0.350
6.84	22.3	-0.30	0.368
6.845	23.1	-0.18	0.379
6.85	23.5	-0.07	0.356
6.855	23.5	0.05	0.353
6.86	23.4	0.17	0.361
6.865	23.0	0.28	0.309
6.87	22.0	0.39	0.278
6.875	20.9	0.50	0.244
6.88	19.4	0.59	0.249
6.885	17.7	0.68	0.204
6.89	15.9	0.75	0.169
6.895	14.2	0.82	0.159
6.9	12.0	0.87	0.115
6.905	9.8	0.92	0.096
6.91	7.8	0.95	0.089
6.915	5.8	0.98	0.049
6.92	3.8	0.99	0.034
6.925	2.0	1.00	0.021
6.93	0.4	0.99	0.023
6.935	-1.1	0.98	0.019
6.94	-2.5	0.97	0.021
6.945	-3.4	0.94	0.000
6.95	-4.3	0.92	0.014
6.955	-5.0	0.89	0.006
6.96	-5.3	0.86	0.026
6.965	-5.5	0.83	0.043
6.97	-5.5	0.79	0.049
6.975	-5.3	0.76	0.048
6.98	-5.0	0.74	0.058
6.985	-4.7	0.71	0.035
6.99	-4.6	0.68	0.026
6.995	-4.2	0.66	0.028
7	-4.0	0.63	0.021
7.005	-4.0	0.61	0.009
7.01	-3.7	0.59	0.040
7.015	-3.4	0.57	0.048
7.02	-3.1	0.55	0.048
7.025	-2.5	0.54	0.057
7.03	-1.8	0.52	0.051
7.035	-1.0	0.52	0.040
7.04	-0.3	0.51	0.043
7.045	0.8	0.51	0.025
7.05	1.8	0.52	0.026
7.055	2.7	0.53	0.063
7.06	3.6	0.55	0.042
7.065	4.5	0.57	0.026
7.07	5.2	0.59	0.048
7.075	5.8	0.62	0.052
7.08	6.3	0.64	0.038
7.085	6.7	0.67	0.052
7.09	7.0	0.71	0.042
7.095	7.4	0.74	0.021
7.1	7.6	0.77	0.018
7.105	7.6	0.81	0.059
7.11	7.7	0.84	0.031
7.115	7.7	0.88	0.017
7.12	7.4	0.91	0.008
7.125	7.2	0.94	0.004
7.13	6.9	0.97	0.011
7.135	6.4	1.00	0.005
7.14	5.7	1.02	0.020
7.145	5.1	1.04	0.021
7.15	4.4	1.06	0.052
7.155	3.6	1.07	0.021
7.16	2.7	1.08	0.001
7.165	1.9	1.08	0.015
7.17	1.0	1.08	0.031
7.175	0.1	1.08	0.018
7.18	-0.4	1.07	0.013
7.185	-1.1	1.06	0.033
7.19	-2.0	1.05	0.060
7.195	-2.5	1.03	0.052
7.2	-3.0	1.01	0.012
7.205	-3.6	0.98	-0.001
7.21	-4.0	0.96	0.017
7.215	-4.5	0.93	0.028
7.22	-5.0	0.90	0.011
7.225	-5.3	0.87	0.021
7.23	-5.4	0.84	0.036
7.235	-5.6	0.81	0.029
7.24	-5.9	0.77	0.030
7.245	-5.8	0.74	0.011
7.25	-5.7	0.71	0.021
7.255	-5.7	0.68	0.011
7.26	-5.5	0.65	0.017
7.265	-5.2	0.62	0.023
7.27	-5.1	0.59	0.001
7.275	-4.9	0.56	0.021
7.28	-4.5	0.54	0.042
7.285	-4.3	0.51	0.061
7.29	-4.1	0.49	0.088
7.295	-3.7	0.47	0.053
7.3	-3.4	0.45	0.032
7.305	-3.1	0.43	0.051
7.31	-2.7	0.42	0.051
7.315	-2.4	0.40	0.066
7.32	-2.3	0.39	0.064
7.325	-2.2	0.38	0.043
7.33	-1.9	0.36	0.068
7.335	-1.9	0.35	0.076
7.34	-1.9	0.34	0.079
7.345	-1.7	0.33	0.092
7.35	-1.6	0.32	0.077
7.355	-1.7	0.31	0.072
7.36	-1.6	0.30	0.056
7.365	-1.5	0.29	0.039
7.37	-1.6	0.28	0.026
7.375	-1.6	0.27	0.019
7.38	-1.6	0.26	0.017
7.385	-1.7	0.26	0.003
7.39	-1.6	0.25	0.026
7.395	-1.3	0.24	0.022
7.4	-1.2	0.23	0.010
7.405	-1.3	0.22	0.036
7.41	-1.3	0.22	0.033
7.415	-1.3	0.21	0.028
7.42	-1.4	0.20	0.032
7.425	-1.4	0.19	0.006
7.43	-1.4	0.18	-0.004
7.435	-1.6	0.18	0.018
7.44	-1.7	0.17	0.022
7.445	-1.7	0.16	0.018
7.45	-1.8	0.15	0.028
7.455	-2.0	0.14	0.054
7.46	-2.0	0.13	0.104
7.465	-2.0	0.12	0.215
7.47	-2.2	0.10	0.357
7.475	-2.3	0.09	0.521
7.48	-2.3	0.08	0.565
7.485	-2.5	0.07	0.430
7.49	-2.7	0.05	0.158
7.495	-2.7	0.04	-0.064
7.5	-2.7	0.03	-0.118
7.505	-2.7	0.01	-0.047
7.51	-2.6	-0.00	0.036
7.515	-2.4	-0.01	0.110
7.52	-2.5	-0.03	0.133
7.525	-2.4	-0.04	0.113
7.53	-2.3	-0.05	0.098
7.535	-2.3	-0.06	0.108
7.54	-2.4	-0.07	0.103
7.545	-2.3	-0.08	0.066
7.55	-2.3	-0.09	0.064
7.555	-2.5	-0.11	0.060
7.56	-2.6	-0.12	0.060
7.565	-2.6	-0.13	0.053
7.57	-2.8	-0.14	0.058
7.575	-3.0	-0.16	0.089
7.58	-3.1	-0.17	0.089
7.585	-3.3	-0.19	0.096
7.59	-3.5	-0.21	0.104
7.595	-3.5	-0.22	0.092
7.6	-3.6	-0.24	0.109
7.605	-3.8	-0.26	0.108
7.61	-3.9	-0.28	0.087
7.615	-4.0	-0.29	0.102
7.62	-4.2	-0.31	0.114
7.625	-4.3	-0.33	0.111
7.63	-4.4	-0.35	0.130
7.635	-4.5	-0.37	0.131
7.64	-4.6	-0.40	0.121
7.645	-4.3	-0.42	0.112
7.65	-4.1	-0.43	0.125
7.655	-4.0	-0.45	0.131
7.66	-3.8	-0.47	0.133
7.665	-3.5	-0.48	0.138
7.67	-3.3	-0.50	0.147
7.675	-3.0	-0.51	0.164
7.68	-2.4	-0.52	0.176
7.685	-1.7	-0.53	0.194
7.69	-0.3	-0.53	0.221
7.695	1.7	-0.51	0.213
7.7	3.9	-0.49	0.199
7.705	6.2	-0.46	0.216
7.71	9.0	-0.41	0.233
7.715	11.7	-0.35	0.241
7.72	14.2	-0.28	0.252
7.725	16.7	-0.19	0.252
7.73	19.0	-0.10	0.284
7.735	20.8	0.01	0.285
7.74	22.4	0.12	0.289
7.745	23.8	0.24	0.299
7.75	24.8	0.36	0.302
7.755	25.2	0.48	0.330
7.76	25.6	0.61	0.342
7.765	25.5	0.73	0.326
7.77	25.0	0.86	0.321
7.775	24.3	0.97	0.296
7.78	23.2	1.08	0.278
7.785	21.7	1.19	0.249
7.79	19.9	1.28	0.243
7.795	18.1	1.36	0.198
7.8	15.9	1.44	0.186
7.805	13.6	1.50	0.138
7.81	11.4	1.55	0.114
7.815	9.3	1.59	0.102
7.82	7.1	1.61	0.072
7.825	5.2	1.63	0.041
7.83	3.5	1.64	0.044
7.835	1.6	1.64	0.030
7.84	0.0	1.63	0.014
7.845	-1.4	1.62	0.040
7.85	-2.6	1.60	0.027
7.855	-3.5	1.57	-0.001
7.86	-4.0	1.54	-0.011
7.865	-4.4	1.51	0.003
7.87	-4.7	1.48	0.034
7.875	-4.7	1.45	0.028
7.88	-4.5	1.42	0.024
7.885	-4.2	1.39	0.011
7.89	-3.9	1.37	0.006
7.895	-3.3	1.34	0.024
7.9	-3.0	1.32	0.033
7.905	-2.7	1.30	0.026
7.91	-2.3	1.28	0.038
7.915	-2.1	1.27	0.045
7.92	-2.2	1.25	0.052
7.925	-2.1	1.23	0.043
7.93	-1.8	1.22	0.021
7.935	-1.5	1.21	0.022
7.94	-0.9	1.19	0.014
7.945	-0.1	1.19	0.036
7.95	0.6	1.19	0.048
7.955	1.4	1.19	0.052
7.96	2.4	1.19	0.039
7.965	3.2	1.20	0.035
7.97	3.9	1.22	0.021
7.975	4.6	1.23	0.012
7.98	5.3	1.25	0.026
7.985	5.8	1.28	0.022
7.99	6.2	1.30	0.035
7.995	6.7	1.33	0.022
8	7.0	1.36	-0.005
8.005	7.1	1.38	-0.008
8.01	7.3	1.41	0.025
8.015	7.3	1.44	0.040
8.02	7.1	1.47	0.043
8.025	6.9	1.50	0.028
8.03	6.8	1.53	0.018
8.035	6.4	1.55	0.021
8.04	5.9	1.57	0.040
8.045	5.5	1.59	0.035
8.05	5.0	1.61	0.009
8.055	4.3	1.62	0.009
8.06	3.6	1.63	0.013
8.065	3.0	1.64	0.007
8.07	2.2	1.64	0.014
8.075	1.5	1.64	0.006
8.08	0.8	1.64	0.004
8.085	0.0	1.63	0.021
8.09	-0.7	1.62	0.039
8.095	-1.2	1.60	0.021
8.1	-2.0	1.58	0.034
8.105	-2.7	1.56	0.037
8.11	-3.2	1.54	0.028
8.115	-3.6	1.51	0.014
8.12	-4.2	1.49	0.053
8.125	-4.5	1.46	0.045
8.13	-4.7	1.42	0.029
8.135	-5.0	1.39	0.007
8.14	-5.2	1.36	0.000
8.145	-5.2	1.33	0.035
8.15	-5.3	1.29	0.031
8.155	-5.5	1.26	0.015
8.16	-5.3	1.23	0.027
8.165	-5.2	1.19	0.031
8.17	-5.2	1.16	0.043
8.175	-5.1	1.13	0.035
8.18	-4.7	1.10	0.010
8.185	-4.6	1.07	0.025
8.19	-4.4	1.05	0.048
8.195	-4.0	1.02	0.037
8.2	-3.7	1.00	0.054
8.205	-3.4	0.98	0.052
8.21	-3.1	0.96	0.049
8.215	-2.7	0.94	0.043
8.22	-2.4	0.92	0.055
8.225	-2.2	0.91	0.068
8.23	-2.0	0.89	0.079
8.235	-1.9	0.88	0.087
8.24	-1.8	0.86	0.072
8.245	-1.5	0.85	0.087
8.25	-1.4	0.84	0.083
8.255	-1.5	0.83	0.078
8.26	-1.4	0.82	0.083
8.265	-1.4	0.81	0.088
8.27	-1.5	0.80	0.106
8.275	-1.5	0.78	0.105
8.28	-1.4	0.77	0.103
8.285	-1.5	0.76	0.109
8.29	-1.5	0.75	0.088
8.295	-1.5	0.74	0.083
8.3	-1.4	0.73	0.069
8.305	-1.5	0.72	0.018
8.31	-1.5	0.71	0.011
8.315	-1.4	0.70	0.021
8.32	-1.5	0.68	0.046
8.325	-1.5	0.67	0.056
8.33	-1.4	0.66	0.051
8.335	-1.5	0.65	0.040
8.34	-1.6	0.64	0.014
8.345	-1.5	0.63	0.006
8.35	-1.6	0.62	0.025
8.355	-1.8	0.61	0.037
8.36	-1.7	0.60	0.058
8.365	-1.8	0.58	0.033
8.37	-2.0	0.57	0.041
8.375	-2.0	0.56	0.047
8.38	-1.9	0.55	0.045
8.385	-1.9	0.53	0.062
8.39	-1.9	0.52	0.083
8.395	-1.9	0.51	0.131
8.4	-2.1	0.50	0.289
8.405	-2.3	0.48	0.484
8.41	-2.3	0.47	0.594
8.415	-2.4	0.46	0.531
8.42	-2.6	0.44	0.360
8.425	-2.6	0.43	0.058
8.43	-2.6	0.41	-0.098
8.435	-2.8	0.39	-0.062
8.44	-2.9	0.38	-0.002
8.445	-2.9	0.36	0.052
8.45	-3.0	0.34	0.107
8.455	-3.2	0.33	0.133
8.46	-3.1	0.31	0.104
8.465	-3.1	0.29	0.091
8.47	-3.3	0.28	0.102
8.475	-3.3	0.26	0.095
8.48	-3.3	0.24	0.084
8.485	-3.4	0.22	0.069
8.49	-3.6	0.20	0.081
8.495	-3.5	0.18	0.109
8.5	-3.5	0.17	0.101
8.505	-3.7	0.15	0.076
8.51	-3.7	0.13	0.107
8.515	-3.8	0.11	0.105
8.52	-4.0	0.09	0.103
8.525	-4.1	0.07	0.104
8.53	-4.1	0.05	0.094
8.535	-4.2	0.03	0.106
8.54	-4.4	0.00	0.113
8.545	-4.5	-0.02	0.117
8.55	-4.6	-0.04	0.121
8.555	-4.8	-0.07	0.095
8.56	-4.6	-0.09	0.125
8.565	-4.5	-0.11	0.101
8.57	-4.5	-0.13	0.101
8.575	-4.4	-0.15	0.126
8.58	-4.0	-0.17	0.143
8.585	-3.8	-0.19	0.120
8.59	-3.6	-0.21	0.125
8.595	-3.3	-0.22	0.176
8.6	-3.2	-0.24	0.173
8.605	-3.0	-0.25	0.157
8.61	-2.6	-0.27	0.177
8.615	-2.1	-0.27	0.174
8.62	-1.4	-0.28	0.179
8.625	-0.2	-0.28	0.189
8.63	1.6	-0.27	0.186
8.635	3.6	-0.25	0.212
8.64	5.9	-0.22	0.241
8.645	8.6	-0.18	0.264
8.65	11.3	-0.12	0.259
8.655	14.0	-0.05	0.262
8.66	16.8	0.04	0.309
8.665	19.4	0.13	0.326
8.67	21.4	0.24	0.301
8.675	23.3	0.36	0.332
8.68	24.8	0.48	0.364
8.685	25.8	0.60	0.361
8.69	26.4	0.73	0.352
8.695	26.8	0.86	0.334
8.7	26.8	0.99	0.311
8.705	26.2	1.12	0.316
8.71	25.4	1.24	0.289
8.715	24.1	1.35	0.278
8.72	22.4	1.46	0.261
8.725	20.5	1.55	0.241
8.73	18.4	1.64	0.210
8.735	16.1	1.71	0.181
8.74	13.6	1.77	0.132
8.745	11.3	1.82	0.104
8.75	8.9	1.85	0.072
8.755	6.5	1.88	0.057
8.76	4.3	1.89	0.050
8.765	2.3	1.89	0.051
8.77	0.3	1.88	0.044
8.775	-1.4	1.87	0.012
8.78	-2.8	1.84	-0.005
8.785	-4.1	1.81	0.003
8.79	-5.2	1.78	-0.020
8.795	-5.9	1.74	-0.009
8.8	-6.4	1.70	0.014
8.805	-6.7	1.66	0.001
8.81	-6.6	1.62	0.007
8.815	-6.4	1.58	0.036
8.82	-6.1	1.54	0.019
8.825	-5.6	1.50	0.022
8.83	-5.1	1.47	0.039
8.835	-4.7	1.44	0.028
8.84	-4.5	1.41	-0.006
8.845	-4.2	1.38	-0.013
8.85	-4.0	1.35	0.007
8.855	-3.8	1.33	0.021
8.86	-3.4	1.30	0.014
8.865	-2.9	1.28	0.005
8.87	-2.4	1.27	-0.008
8.875	-1.6	1.25	-0.013
8.88	-0.6	1.24	-0.005
8.885	0.3	1.24	-0.006
8.89	1.2	1.24	-0.001
8.895	2.3	1.24	0.016
8.9	3.3	1.25	0.008
8.905	4.0	1.27	0.018
8.91	4.9	1.28	-0.005
8.915	5.5	1.31	-0.011
8.92	6.0	1.33	0.004
8.925	6.5	1.35	0.020
8.93	7.0	1.38	0.020
8.935	7.2	1.41	0.003
8.94	7.4	1.44	-0.005
8.945	7.7	1.47	-0.016
8.95	7.8	1.50	0.014
8.955	7.7	1.54	0.016
8.96	7.7	1.57	0.004
8.965	7.4	1.60	0.001
8.97	6.8	1.62	0.021
8.975	6.3	1.65	0.019
8.98	5.8	1.67	-0.009
8.985	5.0	1.68	-0.014
8.99	4.2	1.69	-0.010
8.995	3.7	1.70	0.003
9	2.8	1.71	-0.028
9.005	1.8	1.71	-0.045
9.01	0.9	1.71	-0.050
9.015	0.0	1.70	-0.024
9.02	-1.0	1.69	0.000
9.025	-1.9	1.67	0.012
9.03	-2.7	1.65	0.006
9.035	-3.5	1.62	-0.020
9.04	-4.2	1.59	-0.022
9.045	-4.7	1.56	-0.002
9.05	-5.3	1.52	0.039
9.055	-5.9	1.49	0.020
9.06	-6.2	1.45	0.013
9.065	-6.3	1.41	0.011
9.07	-6.6	1.37	-0.011
9.075	-6.6	1.33	-0.030
9.08	-6.5	1.29	-0.010
9.085	-6.6	1.25	-0.009
9.09	-6.5	1.21	0.001
9.095	-6.3	1.18	-0.014
9.1	-6.1	1.14	-0.018
9.105	-6.1	1.10	-0.001
9.11	-5.8	1.07	-0.003
9.115	-5.5	1.04	-0.009
9.12	-5.4	1.00	0.009
9.125	-5.1	0.97	0.006
9.13	-4.7	0.94	0.011
9.135	-4.5	0.92	0.009
9.14	-4.3	0.89	0.033
9.145	-3.9	0.87	0.052
9.15	-3.7	0.84	0.072
9.155	-3.6	0.82	0.064
9.16	-3.4	0.80	0.043
9.165	-3.2	0.78	0.032
9.17	-3.0	0.76	0.044
9.175	-2.7	0.74	0.044
9.18	-2.5	0.73	0.037
9.185	-2.5	0.71	0.036
9.19	-2.4	0.70	0.031
9.195	-2.1	0.68	0.069
9.2	-2.1	0.67	0.102
9.205	-2.1	0.66	0.074
9.21	-1.9	0.64	0.056
9.215	-1.8	0.63	0.048
9.22	-1.9	0.62	0.040
9.225	-1.8	0.61	0.021
9.23	-1.7	0.59	-0.004
9.235	-1.7	0.58	-0.026
9.24	-1.7	0.57	-0.013
9.245	-1.6	0.56	-0.009
9.25	-1.6	0.55	-0.011
9.255	-1.7	0.54	0.007
9.26	-1.6	0.53	0.018
9.265	-1.6	0.52	0.008
9.27	-1.9	0.51	-0.006
9.275	-2.0	0.49	0.005
9.28	-2.0	0.48	0.000
9.285	-2.1	0.47	0.003
9.29	-2.1	0.46	-0.003
9.295	-2.0	0.44	-0.011
9.3	-2.0	0.43	0.033
9.305	-2.2	0.42	0.061
9.31	-2.2	0.40	0.056
9.315	-2.2	0.39	0.091
9.32	-2.3	0.38	0.206
9.325	-2.3	0.37	0.345
9.33	-2.0	0.35	0.456
9.335	-2.2	0.34	0.443
9.34	-2.3	0.33	0.316
9.345	-2.2	0.31	0.091
9.35	-2.3	0.30	-0.156
9.355	-2.5	0.29	-0.228
9.36	-2.7	0.27	-0.136
9.365	-2.7	0.26	-0.009
9.37	-2.9	0.24	0.049
9.375	-3.0	0.23	0.089
9.38	-3.1	0.21	0.111
9.385	-3.3	0.19	0.083
9.39	-3.5	0.17	0.068
9.395	-3.4	0.15	0.068
9.4	-3.5	0.14	0.056
9.405	-3.7	0.12	0.071
9.41	-3.7	0.10	0.069
9.415	-3.6	0.08	0.051
9.42	-3.8	0.06	0.046
9.425	-3.9	0.04	0.051
9.43	-3.9	0.02	0.066
9.435	-4.2	-0.00	0.073
9.44	-4.3	-0.02	0.064
9.445	-4.3	-0.04	0.069
9.45	-4.4	-0.06	0.096
9.455	-4.5	-0.09	0.107
9.46	-4.6	-0.11	0.106
9.465	-4.6	-0.13	0.093
9.47	-4.7	-0.15	0.098
9.475	-4.7	-0.18	0.113
9.48	-4.7	-0.20	0.099
9.485	-4.8	-0.22	0.074
9.49	-4.8	-0.25	0.098
9.495	-4.6	-0.27	0.108
9.5	-4.5	-0.29	0.128
9.505	-4.3	-0.31	0.144
9.51	-3.9	-0.33	0.141
9.515	-3.5	-0.34	0.146
9.52	-3.5	-0.36	0.146
9.525	-3.3	-0.37	0.137
9.53	-3.0	-0.39	0.160
9.535	-2.9	-0.40	0.161
9.54	-2.7	-0.41	0.160
9.545	-2.4	-0.42	0.173
9.55	-2.0	-0.43	0.181
9.555	-1.4	-0.43	0.216
9.56	-0.3	-0.43	0.226
9.565	1.3	-0.42	0.214
9.57	3.0	-0.41	0.234
9.575	5.2	-0.38	0.277
9.58	7.6	-0.34	0.313
9.585	10.0	-0.29	0.347
9.59	12.4	-0.22	0.366
9.595	15.0	-0.15	0.362
9.6	17.2	-0.06	0.331
9.605	19.2	0.04	0.336
9.61	20.8	0.14	0.341
9.615	22.2	0.25	0.349
9.62	23.0	0.36	0.333
9.625	23.7	0.48	0.311
9.63	24.0	0.60	0.291
9.635	23.8	0.71	0.278
9.64	23.3	0.83	0.251
9.645	22.7	0.94	0.204
9.65	21.5	1.04	0.165
9.655	20.0	1.13	0.153
9.66	18.4	1.22	0.116
9.665	16.6	1.30	0.069
9.67	14.4	1.36	0.046
9.675	12.3	1.42	0.048
9.68	10.1	1.46	0.037
9.685	7.8	1.49	0.016
9.69	5.6	1.51	0.026
9.695	3.6	1.52	0.005
9.7	1.6	1.52	0.001
9.705	-0.3	1.51	-0.003
9.71	-1.9	1.50	-0.013
9.715	-3.4	1.47	0.001
9.72	-4.9	1.44	-0.013
9.725	-5.9	1.40	-0.007
9.73	-6.6	1.36	-0.002
9.735	-7.3	1.32	-0.009
9.74	-7.7	1.28	0.018
9.745	-7.8	1.23	0.034
9.75	-8.0	1.18	0.035
9.755	-8.1	1.14	0.018
9.76	-7.9	1.09	0.006
9.765	-7.8	1.05	-0.011
9.77	-7.8	1.00	-0.042
9.775	-7.6	0.96	-0.027
9.78	-7.4	0.92	-0.013
9.785	-7.3	0.88	0.013
9.79	-7.0	0.84	0.017
9.795	-6.4	0.80	0.031
9.8	-5.6	0.77	0.035
9.805	-4.7	0.74	0.027
9.81	-3.5	0.72	0.003
9.815	-2.2	0.71	-0.006
9.82	-1.0	0.70	0.000
9.825	0.4	0.70	-0.004
9.83	1.8	0.70	-0.014
9.835	3.1	0.72	0.015
9.84	4.2	0.73	0.013
9.845	5.6	0.76	-0.001
9.85	6.6	0.79	0.000
9.855	7.5	0.82	0.014
9.86	8.4	0.86	0.004
9.865	9.1	0.90	-0.004
9.87	9.6	0.94	-0.005
9.875	10.0	0.99	0.023
9.88	10.3	1.03	0.006
9.885	10.3	1.08	-0.012
9.89	10.1	1.13	-0.034
9.895	9.9	1.17	-0.026
9.9	9.4	1.21	-0.029
9.905	8.7	1.25	-0.015
9.91	8.0	1.28	-0.020
9.915	7.1	1.31	-0.048
9.92	5.9	1.33	-0.024
9.925	4.9	1.35	0.009
9.93	3.8	1.36	-0.003
9.935	2.5	1.37	-0.014
9.94	1.3	1.37	0.011
9.945	0.2	1.36	0.001
9.95	-0.9	1.35	0.014
9.955	-2.0	1.33	0.027
9.96	-2.8	1.31	0.014
9.965	-3.6	1.29	0.003
9.97	-4.5	1.26	0.005
9.975	-5.1	1.23	-0.029
9.98	-5.6	1.19	-0.042
9.985	-6.1	1.16	-0.017
9.99	-6.5	1.12	0.007
9.995	-6.6	1.08	0.007
10	-6.8	1.04	0.020
10.005	-7.0	1.00	0.035
10.01	-7.0	0.96	0.037
10.015	-7.0	0.92	0.031
10.02	-7.0	0.88	0.033
10.025	-6.8	0.84	0.018
10.03	-6.5	0.81	0.038
10.035	-6.3	0.77	0.047
10.04	-6.0	0.74	0.043
10.045	-5.6	0.71	0.045
10.05	-5.2	0.68	0.030
10.055	-4.9	0.65	0.016
10.06	-4.5	0.62	0.028
10.065	-4.0	0.60	0.032
10.07	-3.7	0.58	0.039
10.075	-3.4	0.56	0.058
10.08	-2.9	0.54	0.024
10.085	-2.6	0.52	-0.018
10.09	-2.4	0.51	-0.016
10.095	-2.0	0.50	-0.024
10.1	-1.8	0.49	-0.029
10.105	-1.6	0.47	-0.008
10.11	-1.4	0.47	0.032
10.115	-1.2	0.46	0.036
10.12	-1.2	0.45	0.024
10.125	-1.1	0.44	0.010
10.13	-1.0	0.43	0.005
10.135	-1.0	0.43	-0.014
10.14	-1.0	0.42	-0.011
10.145	-0.8	0.41	0.004
10.15	-0.9	0.41	-0.006
10.155	-1.0	0.40	-0.008
10.16	-1.0	0.39	-0.001
10.165	-1.0	0.39	-0.001
10.17	-1.2	0.38	0.030
10.175	-1.2	0.37	0.104
10.18	-1.2	0.36	0.211
10.185	-1.4	0.35	0.390
10.19	-1.5	0.34	0.479
10.195	-1.5	0.34	0.431
10.2	-1.5	0.33	0.275
10.205	-1.7	0.32	-0.006
10.21	-1.7	0.31	-0.181
10.215	-1.7	0.30	-0.176
10.22	-1.8	0.29	-0.113
10.225	-1.8	0.27	-0.019
10.23	-1.7	0.26	0.046
10.235	-1.8	0.25	0.091
10.24	-1.8	0.24	0.069
10.245	-1.7	0.23	0.023
10.25	-1.7	0.22	0.022
10.255	-1.8	0.21	0.038
10.26	-1.8	0.20	0.044
10.265	-1.7	0.19	0.052
10.27	-1.8	0.18	0.044
10.275	-1.7	0.18	0.034
10.28	-1.6	0.17	0.061
10.285	-1.8	0.16	0.051
10.29	-2.1	0.15	0.059
10.295	-2.2	0.13	0.051
10.3	-2.4	0.12	0.069
10.305	-2.6	0.11	0.081
10.31	-2.7	0.09	0.081
10.315	-2.8	0.08	0.099
10.32	-3.1	0.06	0.086
10.325	-3.3	0.05	0.067
10.33	-3.4	0.03	0.064
10.335	-3.7	0.01	0.056
10.34	-3.9	-0.01	0.084
10.345	-3.9	-0.03	0.088
10.35	-4.0	-0.05	0.097
10.355	-4.2	-0.07	0.091
10.36	-4.0	-0.09	0.088
10.365	-3.9	-0.11	0.105
10.37	-3.9	-0.13	0.104
10.375	-3.8	-0.14	0.114
10.38	-3.6	-0.16	0.136
10.385	-3.5	-0.18	0.139
10.39	-3.4	-0.19	0.141
10.395	-3.0	-0.21	0.153
10.4	-2.8	-0.22	0.167
10.405	-2.3	-0.23	0.195
10.41	-1.5	-0.24	0.211
10.415	-0.3	-0.24	0.211
10.42	1.2	-0.23	0.233
10.425	3.3	-0.21	0.223
10.43	5.9	-0.18	0.247
10.435	8.5	-0.14	0.279
10.44	11.3	-0.08	0.304
10.445	14.3	-0.01	0.324
10.45	17.1	0.07	0.305
10.455	19.5	0.17	0.278
10.46	21.9	0.28	0.284
10.465	23.9	0.40	0.299
10.47	25.5	0.52	0.299
10.475	26.7	0.66	0.321
10.48	27.7	0.79	0.307
10.485	28.0	0.93	0.296
10.49	27.9	1.06	0.305
10.495	27.5	1.19	0.268
10.5	26.6	1.32	0.218
10.505	25.2	1.44	0.178
10.51	23.6	1.55	0.141
10.515	21.7	1.65	0.084
10.52	19.5	1.74	0.046
10.525	17.3	1.82	0.053
10.53	15.0	1.88	0.044
10.535	12.5	1.94	0.001
10.54	10.0	1.98	-0.021
10.545	7.7	2.01	-0.011
10.55	5.4	2.02	-0.004
10.555	3.2	2.03	-0.011
10.56	1.3	2.02	-0.021
10.565	-0.4	2.01	-0.017
10.57	-2.0	1.99	-0.001
10.575	-3.4	1.97	-0.011
10.58	-4.4	1.93	-0.026
10.585	-5.3	1.90	-0.027
10.59	-5.8	1.86	-0.024
10.595	-6.1	1.82	-0.002
10.6	-6.3	1.78	0.016
10.605	-6.3	1.74	0.028
10.61	-6.1	1.70	0.018
10.615	-5.8	1.66	-0.002
10.62	-5.7	1.63	0.004
10.625	-5.4	1.59	0.025
10.63	-5.2	1.56	0.026
10.635	-5.2	1.52	0.038
10.64	-5.2	1.49	0.007
10.645	-4.9	1.46	0.004
10.65	-4.5	1.43	-0.016
10.655	-4.0	1.40	-0.016
10.66	-3.2	1.38	0.011
10.665	-2.2	1.36	0.022
10.67	-1.2	1.35	0.014
10.675	-0.0	1.34	-0.003
10.68	1.3	1.34	-0.011
10.685	2.5	1.35	0.007
10.69	3.7	1.36	0.013
10.695	4.9	1.38	0.023
10.7	6.0	1.40	0.028
10.705	6.8	1.42	0.024
10.71	7.7	1.46	0.026
10.715	8.4	1.49	0.021
10.72	8.9	1.53	0.015
10.725	9.3	1.57	-0.005
10.73	9.7	1.61	-0.018
10.735	9.8	1.65	-0.006
10.74	9.8	1.69	0.009
10.745	9.8	1.73	0.034
10.75	9.4	1.77	0.036
10.755	8.9	1.80	-0.002
10.76	8.3	1.84	0.028
10.765	7.6	1.86	0.044
10.77	6.7	1.89	0.019
10.775	5.7	1.91	0.024
10.78	4.8	1.92	0.033
10.785	3.7	1.93	0.033
10.79	2.6	1.93	0.024
10.795	1.6	1.93	-0.008
10.8	0.6	1.93	-0.021
10.805	-0.5	1.91	-0.003
10.81	-1.4	1.90	0.026
10.815	-2.3	1.88	0.014
10.82	-3.3	1.85	0.001
10.825	-4.0	1.82	-0.004
10.83	-4.5	1.79	0.014
10.835	-5.2	1.75	0.026
10.84	-5.7	1.72	0.033
10.845	-6.0	1.68	0.044
10.85	-6.5	1.64	0.037
10.855	-6.8	1.60	0.009
10.86	-6.9	1.55	-0.024
10.865	-6.9	1.51	-0.001
10.87	-7.0	1.47	0.031
10.875	-6.9	1.43	0.022
10.88	-6.7	1.39	0.044
10.885	-6.6	1.35	0.054
10.89	-6.4	1.31	0.018
10.895	-6.0	1.27	0.014
10.9	-5.7	1.24	0.029
10.905	-5.5	1.20	0.046
10.91	-5.1	1.17	0.041
10.915	-4.7	1.14	0.052
10.92	-4.4	1.11	0.054
10.925	-4.0	1.09	0.007
10.93	-3.6	1.06	0.026
10.935	-3.3	1.04	0.051
10.94	-3.1	1.02	0.048
10.945	-2.7	1.00	0.054
10.95	-2.5	0.99	0.038
10.955	-2.3	0.97	0.046
10.96	-2.0	0.96	0.061
10.965	-1.8	0.94	0.052
10.97	-1.8	0.93	0.052
10.975	-1.6	0.92	0.080
10.98	-1.4	0.90	0.098
10.985	-1.4	0.89	0.066
10.99	-1.4	0.88	0.010
10.995	-1.2	0.87	-0.003
11	-1.2	0.86	0.005
11.005	-1.2	0.85	0.011
11.01	-1.1	0.84	-0.012
11.015	-1.0	0.83	-0.024
11.02	-1.1	0.82	-0.027
11.025	-1.0	0.81	-0.019
11.03	-0.9	0.80	0.018
11.035	-1.0	0.79	0.044
11.04	-1.1	0.78	0.041
11.045	-1.1	0.77	0.036
11.05	-1.1	0.77	0.023
11.055	-1.3	0.76	0.016
11.06	-1.2	0.75	0.034
11.065	-1.3	0.74	0.031
11.07	-1.5	0.72	0.023
11.075	-1.6	0.71	0.043
11.08	-1.6	0.70	0.038
11.085	-1.8	0.69	0.116
11.09	-2.0	0.68	0.256
11.095	-1.9	0.66	0.473
11.1	-2.0	0.65	0.566
11.105	-2.1	0.64	0.443
11.11	-2.1	0.62	0.254
11.115	-2.1	0.61	0.015
11.12	-2.3	0.59	-0.101
11.125	-2.3	0.58	-0.056
11.13	-2.2	0.57	0.015
11.135	-2.3	0.55	0.059
11.14	-2.3	0.54	0.094
11.145	-2.2	0.52	0.110
11.15	-2.3	0.51	0.098
11.155	-2.4	0.49	0.099
11.16	-2.3	0.48	0.086
11.165	-2.3	0.47	0.075
11.17	-2.4	0.45	0.052
11.175	-2.5	0.44	0.019
11.18	-2.5	0.42	0.031
11.185	-2.7	0.41	0.058
11.19	-2.9	0.39	0.072
11.195	-3.0	0.38	0.079
11.2	-3.2	0.36	0.086
11.205	-3.4	0.34	0.093
11.21	-3.4	0.32	0.102
11.215	-3.5	0.30	0.095
11.22	-3.7	0.28	0.042
11.225	-3.7	0.26	0.058
11.23	-3.7	0.24	0.088
11.235	-4.0	0.22	0.082
11.24	-4.1	0.20	0.094
11.245	-4.1	0.18	0.106
11.25	-4.1	0.16	0.072
11.255	-4.1	0.13	0.059
11.26	-3.9	0.11	0.086
11.265	-3.7	0.09	0.118
11.27	-3.6	0.08	0.134
11.275	-3.3	0.06	0.123
11.28	-3.1	0.04	0.119
11.285	-3.0	0.03	0.122
11.29	-2.8	0.01	0.144
11.295	-2.4	0.00	0.151
11.3	-1.8	-0.01	0.162
11.305	-0.9	-0.01	0.151
11.31	0.6	-0.01	0.160
11.315	2.6	0.00	0.159
11.32	5.1	0.03	0.165
11.325	8.1	0.07	0.157
11.33	11.5	0.13	0.170
11.335	14.9	0.20	0.192
11.34	18.2	0.29	0.221
11.345	21.5	0.40	0.272
11.35	24.5	0.52	0.293
11.355	27.0	0.65	0.274
11.36	29.3	0.79	0.279
11.365	31.2	0.94	0.279
11.37	32.4	1.10	0.313
11.375	33.3	1.26	0.319
11.38	33.7	1.43	0.307
11.385	33.4	1.58	0.304
11.39	32.5	1.74	0.299
11.395	31.4	1.89	0.276
11.4	29.8	2.03	0.280
11.405	27.8	2.16	0.276
11.41	25.5	2.27	0.234
11.415	22.9	2.38	0.195
11.42	20.0	2.46	0.164
11.425	17.1	2.54	0.143
11.43	14.3	2.60	0.116
11.435	11.4	2.64	0.096
11.44	8.7	2.67	0.068
11.445	6.2	2.69	0.036
11.45	3.9	2.69	0.046
11.455	1.7	2.69	0.064
11.46	-0.1	2.68	0.028
11.465	-1.6	2.65	0.015
11.47	-3.0	2.63	0.019
11.475	-4.0	2.59	0.014
11.48	-4.5	2.56	-0.007
11.485	-4.9	2.52	-0.014
11.49	-4.9	2.48	-0.001
11.495	-4.6	2.45	0.011
11.5	-4.2	2.41	-0.001
11.505	-3.6	2.38	0.007
11.51	-2.8	2.36	0.014
11.515	-2.0	2.34	0.022
11.52	-1.2	2.32	0.035
11.525	-0.6	2.30	0.041
11.53	-0.1	2.29	0.049
11.535	0.1	2.28	0.052
11.54	0.2	2.27	0.026
11.545	0.3	2.26	0.016
11.55	0.3	2.25	0.023
11.555	0.5	2.24	0.034
11.56	0.9	2.24	0.029
11.565	1.5	2.23	0.023
11.57	2.0	2.23	0.025
11.575	2.7	2.23	0.038
11.58	3.5	2.24	0.029
11.585	4.1	2.25	0.026
11.59	4.7	2.26	0.028
11.595	5.4	2.28	0.013
11.6	5.8	2.30	0.027
11.605	6.1	2.31	0.004
11.61	6.6	2.34	0.011
11.615	6.9	2.36	0.024
11.62	7.0	2.38	0.011
11.625	7.2	2.41	0.019
11.63	7.3	2.43	0.021
11.635	7.3	2.45	0.006
11.64	7.2	2.48	0.009
11.645	7.2	2.50	0.004
11.65	6.9	2.52	0.002
11.655	6.4	2.54	0.018
11.66	6.0	2.56	0.009
11.665	5.5	2.58	0.003
11.67	4.8	2.59	0.013
11.675	4.2	2.59	0.026
11.68	3.5	2.60	0.004
11.685	2.7	2.60	0.003
11.69	1.9	2.60	0.031
11.695	1.2	2.59	0.039
11.7	0.3	2.58	0.025
11.705	-0.6	2.56	0.011
11.71	-1.3	2.54	0.049
11.715	-2.1	2.52	0.052
11.72	-2.9	2.49	0.025
11.725	-3.5	2.46	0.030
11.73	-4.0	2.43	0.022
11.735	-4.6	2.39	0.019
11.74	-5.1	2.36	0.035
11.745	-5.4	2.32	0.028
11.75	-5.8	2.28	0.025
11.755	-6.1	2.24	0.046
11.76	-6.3	2.19	0.026
11.765	-6.5	2.15	0.036
11.77	-6.6	2.11	0.026
11.775	-6.6	2.06	0.040
11.78	-6.5	2.02	0.008
11.785	-6.5	1.98	0.021
11.79	-6.3	1.94	0.037
11.795	-6.0	1.90	0.022
11.8	-5.8	1.86	0.025
11.805	-5.6	1.82	0.044
11.81	-5.1	1.79	0.049
11.815	-4.8	1.75	0.030
11.82	-4.5	1.72	0.018
11.825	-4.2	1.69	0.009
11.83	-3.8	1.66	0.037
11.835	-3.6	1.64	0.072
11.84	-3.3	1.61	0.050
11.845	-2.9	1.59	0.061
11.85	-2.6	1.57	0.061
11.855	-2.4	1.55	0.057
11.86	-2.1	1.53	0.074
11.865	-1.9	1.51	0.081
11.87	-1.8	1.50	0.083
11.875	-1.6	1.48	0.084
11.88	-1.4	1.47	0.086
11.885	-1.4	1.45	0.088
11.89	-1.5	1.44	0.083
11.895	-1.2	1.43	0.083
11.9	-1.2	1.41	0.097
11.905	-1.3	1.40	0.111
11.91	-1.3	1.39	0.085
11.915	-1.3	1.37	0.053
11.92	-1.5	1.36	0.082
11.925	-1.6	1.34	0.073
11.93	-1.7	1.33	0.069
11.935	-1.9	1.31	0.050
11.94	-1.9	1.30	0.047
11.945	-1.7	1.28	0.054
11.95	-1.6	1.27	0.039
11.955	-1.7	1.25	0.048
11.96	-1.8	1.24	0.056
11.965	-1.9	1.22	0.031
11.97	-2.1	1.20	-0.011
11.975	-2.2	1.19	0.003
11.98	-2.2	1.17	0.037
11.985	-2.3	1.15	0.049
11.99	-2.5	1.14	0.036
11.995	-2.5	1.12	0.021
12	-2.6	1.10	0.036
12.005	-2.8	1.08	0.056
12.01	-2.9	1.06	0.054
12.015	-2.9	1.04	0.063
12.02	-3.0	1.02	0.101
12.025	-3.0	1.00	0.159
12.03	-3.0	0.98	0.344
12.035	-3.1	0.96	0.534
12.04	-3.2	0.94	0.583
12.045	-3.1	0.92	0.480
12.05	-3.3	0.90	0.256
12.055	-3.4	0.88	0.001
12.06	-3.3	0.86	-0.092
12.065	-3.2	0.83	-0.064
12.07	-3.3	0.81	0.022
12.075	-3.3	0.79	0.095
12.08	-3.2	0.77	0.115
12.085	-3.4	0.75	0.100
12.09	-3.5	0.73	0.085
12.095	-3.4	0.71	0.086
12.1	-3.5	0.69	0.066
12.105	-3.6	0.67	0.057
12.11	-3.4	0.65	0.066
12.115	-3.4	0.63	0.071
12.12	-3.5	0.61	0.064
12.125	-3.5	0.59	0.097
12.13	-3.5	0.57	0.086
12.135	-3.8	0.54	0.069
12.14	-4.0	0.52	0.066
12.145	-4.0	0.50	0.083
12.15	-4.1	0.48	0.096
12.155	-4.1	0.45	0.066
12.16	-4.1	0.43	0.058
12.165	-4.0	0.41	0.074
12.17	-4.2	0.39	0.084
12.175	-4.2	0.36	0.076
12.18	-4.2	0.34	0.102
12.185	-4.3	0.32	0.111
12.19	-4.3	0.29	0.096
12.195	-4.1	0.27	0.089
12.2	-3.9	0.25	0.099
12.205	-3.8	0.23	0.129
12.21	-3.5	0.21	0.138
12.215	-3.3	0.20	0.150
12.22	-3.2	0.18	0.146
12.225	-2.9	0.16	0.139
12.23	-2.6	0.15	0.158
12.235	-2.4	0.14	0.155
12.24	-1.9	0.13	0.148
12.245	-1.1	0.12	0.178
12.25	0.1	0.12	0.202
12.255	1.8	0.13	0.208
12.26	4.2	0.15	0.211
12.265	7.1	0.18	0.213
12.27	10.1	0.23	0.219
12.275	13.5	0.30	0.234
12.28	16.8	0.38	0.259
12.285	19.9	0.48	0.302
12.29	22.8	0.59	0.312
12.295	25.7	0.72	0.319
12.3	27.9	0.85	0.336
12.305	29.7	1.00	0.348
12.31	31.2	1.15	0.356
12.315	32.3	1.30	0.360
12.32	32.4	1.46	0.362
12.325	32.4	1.61	0.349
12.33	31.8	1.76	0.334
12.335	30.5	1.91	0.324
12.34	28.7	2.04	0.303
12.345	26.8	2.17	0.260
12.35	24.2	2.28	0.229
12.355	21.6	2.37	0.218
12.36	18.9	2.46	0.184
12.365	16.0	2.52	0.174
12.37	13.1	2.58	0.135
12.375	10.3	2.61	0.087
12.38	7.8	2.64	0.048
12.385	5.2	2.65	0.033
12.39	3.0	2.66	0.027
12.395	0.9	2.65	0.029
12.4	-0.9	2.63	0.058
12.405	-2.4	2.60	0.066
12.41	-3.5	2.57	0.062
12.415	-4.3	2.54	0.031
12.42	-4.9	2.50	0.000
12.425	-5.2	2.46	0.011
12.43	-5.1	2.43	0.035
12.435	-4.9	2.39	0.046
12.44	-4.5	2.36	0.040
12.445	-3.9	2.32	0.028
12.45	-3.2	2.30	0.019
12.455	-2.5	2.27	0.013
12.46	-1.9	2.25	0.005
12.465	-1.2	2.23	0.034
12.47	-1.0	2.22	0.036
12.475	-0.9	2.20	0.016
12.48	-0.9	2.19	0.021
12.485	-1.0	2.17	0.023
12.49	-1.0	2.16	0.010
12.495	-0.7	2.14	0.010
12.5	-0.3	2.13	0.028
12.505	0.3	2.12	0.040
12.51	1.0	2.11	0.037
12.515	1.6	2.11	0.032
12.52	2.0	2.11	0.052
12.525	2.7	2.11	0.045
12.53	3.3	2.12	0.048
12.535	3.9	2.13	0.031
12.54	4.4	2.14	0.028
12.545	5.1	2.16	0.033
12.55	5.5	2.17	0.039
12.555	5.9	2.19	0.031
12.56	6.3	2.21	0.037
12.565	6.5	2.23	0.031
12.57	6.4	2.25	0.015
12.575	6.4	2.27	0.004
12.58	6.4	2.30	0.014
12.585	6.2	2.31	0.021
12.59	6.0	2.33	0.022
12.595	5.6	2.35	0.013
12.6	5.0	2.36	0.000
12.605	4.3	2.37	0.019
12.61	3.7	2.38	0.037
12.615	3.0	2.38	0.036
12.62	2.1	2.38	0.036
12.625	1.3	2.38	0.043
12.63	0.5	2.37	0.026
12.635	-0.4	2.35	0.029
12.64	-1.2	2.33	0.020
12.645	-1.9	2.31	0.026
12.65	-2.8	2.29	0.032
12.655	-3.6	2.26	0.017
12.66	-4.2	2.23	0.003
12.665	-4.8	2.19	0.011
12.67	-5.5	2.15	0.030
12.675	-6.0	2.11	0.028
12.68	-6.4	2.07	0.029
12.685	-6.8	2.03	0.046
12.69	-7.1	1.98	0.054
12.695	-7.3	1.93	0.061
12.7	-7.4	1.89	0.044
12.705	-7.5	1.84	0.044
12.71	-7.5	1.79	0.037
12.715	-7.5	1.75	0.019
12.72	-7.4	1.70	0.018
12.725	-7.1	1.66	0.040
12.73	-6.9	1.61	0.024
12.735	-6.7	1.57	0.049
12.74	-6.5	1.53	0.052
12.745	-6.1	1.49	0.051
12.75	-5.8	1.46	0.034
12.755	-5.6	1.42	0.024
12.76	-5.1	1.39	0.006
12.765	-4.7	1.36	0.021
12.77	-4.5	1.33	0.039
12.775	-4.1	1.30	0.064
12.78	-3.7	1.28	0.061
12.785	-3.6	1.25	0.028
12.79	-3.4	1.23	0.036
12.795	-3.0	1.21	0.053
12.8	-2.9	1.19	0.078
12.805	-2.8	1.17	0.096
12.81	-2.6	1.15	0.079
12.815	-2.4	1.13	0.079
12.82	-2.3	1.11	0.084
12.825	-2.1	1.10	0.067
12.83	-2.1	1.08	0.089
12.835	-2.1	1.07	0.081
12.84	-2.2	1.05	0.094
12.845	-2.1	1.03	0.085
12.85	-2.1	1.02	0.077
12.855	-2.2	1.00	0.081
12.86	-2.2	0.99	0.091
12.865	-2.3	0.97	0.073
12.87	-2.4	0.95	0.076
12.875	-2.4	0.94	0.087
12.88	-2.4	0.92	0.084
12.885	-2.5	0.90	0.072
12.89	-2.5	0.89	0.062
12.895	-2.4	0.87	0.074
12.9	-2.5	0.85	0.060
12.905	-2.6	0.84	0.051
12.91	-2.6	0.82	0.054
12.915	-2.6	0.80	0.049
12.92	-2.8	0.78	0.054
12.925	-2.8	0.77	0.036
12.93	-2.8	0.75	0.042
12.935	-3.0	0.73	0.052
12.94	-3.1	0.71	0.051
12.945	-3.1	0.69	0.052
12.95	-3.2	0.67	0.028
12.955	-3.3	0.65	0.033
12.96	-3.3	0.63	0.032
12.965	-3.4	0.61	0.040
12.97	-3.5	0.59	0.049
12.975	-3.6	0.57	0.089
12.98	-3.6	0.55	0.116
12.985	-3.7	0.53	0.218
12.99	-3.9	0.51	0.367
12.995	-3.8	0.48	0.502
13	-3.9	0.46	0.555
13.005	-4.0	0.44	0.434
13.01	-4.0	0.42	0.239
13.015	-4.0	0.40	-0.037
13.02	-4.2	0.37	-0.160
13.025	-4.2	0.35	-0.086
13.03	-4.2	0.33	0.009
13.035	-4.2	0.30	0.071
13.04	-4.0	0.28	0.108
13.045	-3.8	0.26	0.134
13.05	-3.9	0.24	0.134
13.055	-4.0	0.22	0.100
13.06	-3.9	0.20	0.087
13.065	-3.8	0.18	0.098
13.07	-3.8	0.16	0.114
13.075	-3.7	0.14	0.119
13.08	-3.5	0.12	0.116
13.085	-3.6	0.10	0.106
13.09	-3.7	0.09	0.089
13.095	-3.8	0.07	0.073
13.1	-4.0	0.05	0.073
13.105	-4.1	0.03	0.089
13.11	-4.1	0.00	0.109
13.115	-4.1	-0.02	0.099
13.12	-4.3	-0.04	0.071
13.125	-4.4	-0.06	0.082
13.13	-4.4	-0.08	0.124
13.135	-4.6	-0.10	0.131
13.14	-4.8	-0.13	0.112
13.145	-4.7	-0.15	0.124
13.15	-4.8	-0.17	0.133
13.155	-5.0	-0.20	0.153
13.16	-4.8	-0.22	0.134
13.165	-4.7	-0.24	0.106
13.17	-4.5	-0.26	0.113
13.175	-4.3	-0.28	0.105
13.18	-4.0	-0.30	0.114
13.185	-4.0	-0.32	0.137
13.19	-3.9	-0.34	0.151
13.195	-3.6	-0.36	0.174
13.2	-3.4	-0.37	0.173
13.205	-3.1	-0.38	0.195
13.21	-2.3	-0.39	0.189
13.215	-1.4	-0.40	0.219
13.22	-0.2	-0.40	0.244
13.225	1.6	-0.39	0.246
13.23	3.8	-0.37	0.271
13.235	6.3	-0.33	0.286
13.24	9.1	-0.29	0.287
13.245	12.3	-0.22	0.306
13.25	15.3	-0.15	0.314
13.255	18.3	-0.05	0.321
13.26	21.1	0.05	0.344
13.265	23.6	0.17	0.356
13.27	25.6	0.30	0.386
13.275	27.3	0.43	0.404
13.28	28.7	0.57	0.384
13.285	29.3	0.72	0.394
13.29	29.6	0.86	0.368
13.295	29.5	1.00	0.358
13.3	28.8	1.14	0.331
13.305	27.6	1.27	0.305
13.31	26.1	1.40	0.258
13.315	24.2	1.51	0.232
13.32	21.8	1.61	0.196
13.325	19.4	1.70	0.153
13.33	16.9	1.78	0.127
13.335	14.1	1.84	0.108
13.34	11.4	1.89	0.114
13.345	8.8	1.92	0.066
13.35	6.2	1.95	0.025
13.355	3.6	1.95	0.021
13.36	1.4	1.95	0.023
13.365	-0.6	1.94	0.024
13.37	-2.5	1.92	0.019
13.375	-4.0	1.89	0.042
13.38	-5.2	1.85	0.059
13.385	-6.3	1.81	0.048
13.39	-7.0	1.77	0.024
13.395	-7.3	1.72	0.028
13.4	-7.5	1.67	0.033
13.405	-7.5	1.63	0.046
13.41	-7.1	1.59	0.041
13.415	-6.7	1.54	0.066
13.42	-6.3	1.50	0.056
13.425	-5.9	1.47	0.037
13.43	-5.5	1.43	0.036
13.435	-5.2	1.40	0.029
13.44	-5.0	1.37	0.024
13.445	-4.7	1.34	0.016
13.45	-4.5	1.31	0.026
13.455	-4.2	1.28	0.034
13.46	-3.5	1.26	0.037
13.465	-2.6	1.24	0.021
13.47	-1.8	1.22	0.022
13.475	-0.7	1.21	0.048
13.48	0.6	1.21	0.054
13.485	1.7	1.21	0.044
13.49	2.8	1.22	0.052
13.495	4.0	1.23	0.044
13.5	5.0	1.25	0.028
13.505	5.8	1.28	0.019
13.51	6.7	1.30	0.033
13.515	7.3	1.33	0.037
13.52	7.7	1.37	0.028
13.525	8.2	1.40	0.028
13.53	8.6	1.44	0.023
13.535	8.7	1.47	0.033
13.54	8.7	1.51	0.021
13.545	8.7	1.54	0.036
13.55	8.3	1.58	0.039
13.555	7.8	1.61	0.035
13.56	7.3	1.64	0.032
13.565	6.6	1.66	0.016
13.57	5.7	1.68	0.010
13.575	4.8	1.70	0.016
13.58	3.8	1.71	0.044
13.585	2.7	1.71	0.052
13.59	1.6	1.71	0.027
13.595	0.6	1.71	0.034
13.6	-0.5	1.70	0.063
13.605	-1.7	1.68	0.058
13.61	-2.6	1.66	0.034
13.615	-3.6	1.63	0.051
13.62	-4.5	1.60	0.039
13.625	-5.3	1.57	0.028
13.63	-5.9	1.53	0.051
13.635	-6.6	1.49	0.035
13.64	-7.1	1.45	0.044
13.645	-7.4	1.40	0.034
13.65	-7.7	1.36	0.014
13.655	-8.0	1.31	0.009
13.66	-8.1	1.26	0.046
13.665	-8.2	1.22	0.051
13.67	-8.3	1.17	0.039
13.675	-8.1	1.12	0.017
13.68	-7.9	1.08	0.015
13.685	-7.7	1.03	0.030
13.69	-7.5	0.99	0.051
13.695	-7.0	0.95	0.053
13.7	-6.6	0.91	0.036
13.705	-6.2	0.88	0.013
13.71	-5.7	0.84	0.017
13.715	-5.1	0.81	0.041
13.72	-4.7	0.79	0.054
13.725	-4.3	0.76	0.052
13.73	-3.8	0.74	0.026
13.735	-3.5	0.72	0.015
13.74	-3.1	0.70	0.022
13.745	-2.7	0.68	0.021
13.75	-2.5	0.67	0.039
13.755	-2.3	0.65	0.077
13.76	-2.0	0.64	0.073
13.765	-1.8	0.62	0.057
13.77	-1.8	0.61	0.069
13.775	-1.6	0.60	0.088
13.78	-1.5	0.59	0.078
13.785	-1.6	0.58	0.060
13.79	-1.6	0.57	0.075
13.795	-1.6	0.56	0.089
13.8	-1.6	0.55	0.061
13.805	-1.6	0.54	0.033
13.81	-1.6	0.53	0.060
13.815	-1.6	0.52	0.111
13.82	-1.8	0.50	0.127
13.825	-1.7	0.49	0.104
13.83	-1.7	0.48	0.067
13.835	-1.8	0.47	0.043
13.84	-1.8	0.46	0.053
13.845	-1.8	0.45	0.049
13.85	-1.8	0.44	0.061
13.855	-1.9	0.42	0.043
13.86	-1.9	0.41	0.019
13.865	-2.0	0.40	0.026
13.87	-2.3	0.39	0.039
13.875	-2.4	0.37	0.029
13.88	-2.4	0.36	0.042
13.885	-2.6	0.35	0.049
13.89	-2.8	0.33	0.047
13.895	-2.7	0.31	0.029
13.9	-2.8	0.30	0.028
13.905	-3.0	0.28	0.036
13.91	-3.0	0.27	0.048
13.915	-3.1	0.25	0.062
13.92	-3.2	0.23	0.044
13.925	-3.1	0.22	0.077
13.93	-3.2	0.20	0.099
13.935	-3.3	0.18	0.210
13.94	-3.3	0.16	0.398
13.945	-3.2	0.15	0.548
13.95	-3.2	0.13	0.515
13.955	-3.4	0.11	0.359
13.96	-3.3	0.10	0.108
13.965	-3.3	0.08	-0.119
13.97	-3.5	0.06	-0.139
13.975	-3.4	0.04	-0.057
13.98	-3.3	0.03	0.021
13.985	-3.4	0.01	0.069
13.99	-3.5	-0.01	0.114
13.995	-3.4	-0.02	0.119
14	-3.5	-0.04	0.098
14.005	-3.5	-0.06	0.092
14.01	-3.4	-0.08	0.086
14.015	-3.4	-0.09	0.069
14.02	-3.5	-0.11	0.096
14.025	-3.4	-0.13	0.091
14.03	-3.4	-0.14	0.073
14.035	-3.5	-0.16	0.081
14.04	-3.7	-0.18	0.091
14.045	-3.7	-0.19	0.092
14.05	-3.8	-0.21	0.091
14.055	-4.0	-0.23	0.064
14.06	-3.9	-0.25	0.059
14.065	-3.9	-0.27	0.085
14.07	-4.0	-0.29	0.101
14.075	-4.0	-0.30	0.076
14.08	-4.0	-0.32	0.081
14.085	-4.1	-0.34	0.115
14.09	-4.2	-0.36	0.125
14.095	-4.1	-0.38	0.136
14.1	-4.2	-0.40	0.112
14.105	-4.2	-0.42	0.123
14.11	-3.9	-0.44	0.133
14.115	-3.7	-0.45	0.127
14.12	-3.5	-0.47	0.132
14.125	-3.2	-0.48	0.137
14.13	-3.0	-0.49	0.128
14.135	-3.0	-0.51	0.133
14.14	-2.9	-0.52	0.154
14.145	-2.6	-0.53	0.142
14.15	-2.4	-0.54	0.158
14.155	-2.0	-0.54	0.164
14.16	-1.2	-0.55	0.188
14.165	0.0	-0.54	0.199
14.17	1.6	-0.53	0.191
14.175	3.8	-0.51	0.201
14.18	6.5	-0.48	0.228
14.185	9.3	-0.43	0.259
14.19	12.5	-0.36	0.308
14.195	15.8	-0.28	0.322
14.2	19.0	-0.19	0.322
14.205	21.9	-0.08	0.324
14.21	24.7	0.05	0.321
14.215	27.0	0.18	0.347
14.22	28.8	0.33	0.370
14.225	30.4	0.48	0.382
14.23	31.4	0.63	0.384
14.235	31.8	0.79	0.379
14.24	31.8	0.94	0.379
14.245	31.3	1.09	0.367
14.25	30.2	1.24	0.346
14.255	28.7	1.38	0.284
14.26	26.9	1.50	0.224
14.265	24.6	1.62	0.196
14.27	22.0	1.72	0.164
14.275	19.3	1.81	0.151
14.28	16.5	1.88	0.131
14.285	13.6	1.94	0.105
14.29	10.7	1.99	0.057
14.295	8.1	2.02	0.036
14.3	5.4	2.03	0.018
14.305	3.0	2.04	0.024
14.31	0.9	2.03	0.045
14.315	-1.0	2.02	0.010
14.32	-2.8	1.99	0.012
14.325	-4.1	1.96	0.027
14.33	-5.0	1.93	0.022
14.335	-5.8	1.89	0.049
14.34	-6.2	1.85	0.046
14.345	-6.3	1.81	0.022
14.35	-6.2	1.77	0.006
14.355	-6.0	1.73	0.014
14.36	-5.4	1.69	0.031
14.365	-4.8	1.66	0.041
14.37	-4.3	1.63	0.048
14.375	-3.8	1.60	0.044
14.38	-3.3	1.58	0.037
14.385	-3.1	1.56	0.052
14.39	-3.0	1.53	0.055
14.395	-2.8	1.51	0.054
14.4	-2.8	1.49	0.038
14.405	-2.6	1.47	0.007
14.41	-2.1	1.45	0.008
14.415	-1.5	1.44	0.036
14.42	-0.8	1.43	0.053
14.425	0.1	1.42	0.052
14.43	1.2	1.42	0.039
14.435	2.1	1.42	0.030
14.44	3.1	1.43	0.014
14.445	4.2	1.44	0.033
14.45	5.1	1.46	0.059
14.455	5.9	1.48	0.060
14.46	6.7	1.51	0.053
14.465	7.4	1.54	0.059
14.47	7.8	1.57	0.059
14.475	8.2	1.60	0.068
14.48	8.6	1.64	0.026
14.485	8.7	1.67	0.004
14.49	8.7	1.71	-0.004
14.495	8.7	1.75	0.019
14.5	8.4	1.78	0.035
14.505	7.9	1.81	0.025
14.51	7.5	1.84	0.048
14.515	6.9	1.86	0.052
14.52	6.0	1.88	0.039
14.525	5.2	1.90	0.056
14.53	4.4	1.91	0.048
14.535	3.2	1.92	0.042
14.54	2.2	1.92	0.025
14.545	1.2	1.92	0.022
14.55	0.1	1.91	0.045
14.555	-1.0	1.89	0.069
14.56	-1.9	1.87	0.037
14.565	-2.8	1.85	0.028
14.57	-3.8	1.82	0.021
14.575	-4.5	1.79	0.029
14.58	-5.3	1.76	0.020
14.585	-6.0	1.72	0.022
14.59	-6.5	1.68	0.030
14.595	-6.8	1.63	0.056
14.6	-7.1	1.59	0.038
14.605	-7.5	1.54	0.052
14.61	-7.6	1.50	0.064
14.615	-7.7	1.45	0.059
14.62	-7.7	1.41	0.047
14.625	-7.5	1.36	0.044
14.63	-7.1	1.32	0.037
14.635	-7.0	1.28	0.039
14.64	-6.7	1.24	0.055
14.645	-6.4	1.20	0.056
14.65	-6.1	1.16	0.053
14.655	-5.8	1.13	0.046
14.66	-5.3	1.10	0.025
14.665	-4.8	1.07	0.007
14.67	-4.5	1.04	0.016
14.675	-4.1	1.01	0.039
14.68	-3.7	0.99	0.030
14.685	-3.5	0.97	0.027
14.69	-3.3	0.95	0.040
14.695	-2.9	0.93	0.054
14.7	-2.7	0.91	0.040
14.705	-2.6	0.89	0.059
14.71	-2.3	0.87	0.061
14.715	-2.1	0.86	0.064
14.72	-2.1	0.85	0.079
14.725	-1.9	0.83	0.068
14.73	-1.8	0.82	0.079
14.735	-1.8	0.81	0.087
14.74	-1.8	0.79	0.099
14.745	-1.6	0.78	0.091
14.75	-1.6	0.77	0.092
14.755	-1.6	0.76	0.061
14.76	-1.5	0.75	0.066
14.765	-1.5	0.73	0.077
14.77	-1.6	0.72	0.098
14.775	-1.5	0.71	0.090
14.78	-1.4	0.70	0.078
14.785	-1.5	0.69	0.058
14.79	-1.5	0.68	0.068
14.795	-1.4	0.67	0.082
14.8	-1.6	0.66	0.066
14.805	-1.7	0.65	0.061
14.81	-1.7	0.63	0.025
14.815	-1.8	0.62	0.007
14.82	-2.0	0.61	0.004
14.825	-2.1	0.59	0.008
14.83	-2.2	0.58	0.043
14.835	-2.4	0.57	0.055
14.84	-2.6	0.55	0.015
14.845	-2.6	0.53	0.007
14.85	-2.7	0.52	0.029
14.855	-2.9	0.50	0.031
14.86	-2.8	0.48	0.034
14.865	-3.0	0.47	0.009
14.87	-3.1	0.45	0.029
14.875	-3.1	0.43	0.037
14.88	-3.1	0.41	0.043
14.885	-3.2	0.40	0.091
14.89	-3.3	0.38	0.254
14.895	-3.1	0.36	0.444
14.9	-3.2	0.34	0.600
14.905	-3.4	0.32	0.584
14.91	-3.3	0.31	0.400
14.915	-3.4	0.29	0.120
14.92	-3.5	0.27	-0.084
14.925	-3.5	0.25	-0.059
14.93	-3.5	0.23	0.037
14.935	-3.6	0.21	0.100
14.94	-3.7	0.19	0.143
14.945	-3.6	0.17	0.147
14.95	-3.7	0.15	0.148
14.955	-3.8	0.13	0.121
14.96	-3.8	0.11	0.110
14.965	-3.8	0.09	0.076
14.97	-4.0	0.07	0.063
14.975	-3.9	0.05	0.054
14.98	-3.9	0.03	0.043
14.985	-3.9	0.02	0.049
14.99	-4.0	-0.00	0.074
14.995	-3.9	-0.02	0.083
15	-4.0	-0.04	0.073
15.005	-4.1	-0.06	0.073
15.01	-4.0	-0.08	0.084
15.015	-3.9	-0.10	0.086
15.02	-3.9	-0.12	0.083
15.025	-3.8	-0.14	0.082
15.03	-3.7	-0.16	0.104
15.035	-3.8	-0.18	0.088
15.04	-3.9	-0.20	0.076
15.045	-3.9	-0.21	0.063
15.05	-3.9	-0.23	0.081
15.055	-3.9	-0.25	0.091
15.06	-3.8	-0.27	0.105
15.065	-3.6	-0.29	0.132
15.07	-3.5	-0.30	0.107
15.075	-3.3	-0.32	0.081
15.08	-3.1	-0.33	0.079
15.085	-3.0	-0.34	0.101
15.09	-2.9	-0.36	0.110
15.095	-2.5	-0.37	0.140
15.1	-2.2	-0.38	0.135
15.105	-1.7	-0.38	0.141
15.11	-0.7	-0.39	0.160
15.115	0.8	-0.38	0.159
15.12	2.8	-0.36	0.177
15.125	5.4	-0.33	0.191
15.13	8.5	-0.29	0.216
15.135	11.7	-0.23	0.198
15.14	15.1	-0.15	0.222
15.145	18.7	-0.06	0.235
15.15	22.0	0.05	0.262
15.155	25.0	0.18	0.274
15.16	27.8	0.31	0.302
15.165	30.1	0.46	0.311
15.17	31.8	0.62	0.318
15.175	33.3	0.78	0.329
15.18	34.2	0.95	0.340
15.185	34.4	1.12	0.322
15.19	34.1	1.28	0.305
15.195	33.3	1.44	0.310
15.2	31.9	1.60	0.290
15.205	30.0	1.74	0.301
15.21	28.0	1.87	0.271
15.215	25.6	1.99	0.230
15.22	22.8	2.09	0.191
15.225	19.8	2.18	0.173
15.23	16.8	2.25	0.134
15.235	13.8	2.31	0.077
15.24	10.9	2.35	0.068
15.245	8.1	2.38	0.061
15.25	5.4	2.40	0.049
15.255	2.9	2.40	0.001
15.26	0.8	2.39	0.006
15.265	-1.1	2.38	0.023
15.27	-2.7	2.35	0.035
15.275	-3.8	2.32	0.028
15.28	-4.7	2.28	-0.008
15.285	-5.3	2.25	-0.002
15.29	-5.6	2.21	-0.003
15.295	-5.4	2.17	0.021
15.3	-5.1	2.13	0.033
15.305	-4.7	2.10	0.019
15.31	-4.0	2.07	0.031
15.315	-3.2	2.04	0.051
15.32	-2.5	2.02	0.031
15.325	-1.6	2.00	0.025
15.33	-0.9	1.99	0.019
15.335	-0.5	1.97	0.005
15.34	-0.2	1.96	0.023
15.345	-0.2	1.95	0.028
15.35	-0.2	1.94	0.034
15.355	-0.3	1.93	0.040
15.36	0.1	1.92	0.037
15.365	0.4	1.91	0.039
15.37	0.9	1.91	0.044
15.375	1.5	1.91	0.034
15.38	2.3	1.91	0.034
15.385	2.9	1.91	0.027
15.39	3.6	1.92	0.006
15.395	4.4	1.93	0.009
15.4	5.0	1.95	0.005
15.405	5.5	1.97	-0.009
15.41	6.0	1.99	-0.003
15.415	6.4	2.01	0.011
15.42	6.6	2.03	-0.009
15.425	6.9	2.06	-0.020
15.43	7.2	2.08	-0.008
15.435	7.1	2.11	0.036
15.44	7.2	2.13	0.061
15.445	7.2	2.16	0.061
15.45	7.0	2.18	0.029
15.455	6.7	2.20	0.019
15.46	6.4	2.22	0.018
15.465	5.9	2.24	0.019
15.47	5.4	2.26	0.021
15.475	4.6	2.27	0.056
15.48	3.8	2.28	0.048
15.485	2.7	2.28	0.007
15.49	2.0	2.28	-0.002
15.495	1.2	2.27	0.011
15.5	0.1	2.26	0.020
15.505	-1.2	2.25	0.026
15.51	-2.3	2.22	0.046
15.515	-3.4	2.19	0.053
15.52	-4.3	2.16	0.041
15.525	-5.0	2.13	0.018
15.53	-5.7	2.09	0.021
15.535	-6.2	2.05	0.023
15.54	-6.4	2.00	0.020
15.545	-6.6	1.96	0.033
15.55	-7.0	1.92	0.049
15.555	-7.3	1.87	0.038
15.56	-7.4	1.82	0.034
15.565	-7.5	1.78	0.040
15.57	-7.7	1.73	0.044
15.575	-7.6	1.68	0.034
15.58	-7.4	1.64	0.039
15.585	-7.3	1.59	0.025
15.59	-7.2	1.55	0.027
15.595	-6.8	1.51	0.026
15.6	-6.6	1.47	0.021
15.605	-6.3	1.43	0.020
15.61	-5.9	1.39	0.031
15.615	-5.6	1.36	0.038
15.62	-5.4	1.32	0.058
15.625	-5.1	1.29	0.049
15.63	-4.7	1.26	0.044
15.635	-4.6	1.23	0.021
15.64	-4.4	1.20	0.018
15.645	-4.0	1.18	0.028
15.65	-3.8	1.15	0.039
15.655	-3.7	1.13	0.048
15.66	-3.2	1.11	0.062
15.665	-2.9	1.09	0.055
15.67	-2.8	1.07	0.036
15.675	-2.5	1.05	0.016
15.68	-2.3	1.03	0.019
15.685	-2.3	1.02	0.034
15.69	-2.3	1.00	0.049
15.695	-2.3	0.98	0.094
15.7	-2.3	0.97	0.081
15.705	-2.1	0.95	0.070
15.71	-1.8	0.94	0.043
15.715	-1.8	0.92	0.056
15.72	-1.9	0.91	0.079
15.725	-1.8	0.90	0.066
15.73	-1.7	0.88	0.052
15.735	-1.9	0.87	0.054
15.74	-1.9	0.85	0.066
15.745	-2.0	0.84	0.079
15.75	-2.1	0.83	0.095
15.755	-2.4	0.81	0.089
15.76	-2.6	0.79	0.086
15.765	-2.7	0.78	0.082
15.77	-2.9	0.76	0.071
15.775	-3.5	0.74	0.046
15.78	-3.6	0.71	0.036
15.785	-2.9	0.70	0.037
15.79	-2.8	0.68	0.034
15.795	-3.0	0.66	0.046
15.8	-3.0	0.64	0.054
15.805	-3.0	0.62	0.045
15.81	-3.1	0.60	0.061
15.815	-3.3	0.58	0.049
15.82	-3.3	0.57	0.032
15.825	-3.2	0.55	0.022
15.83	-3.1	0.53	0.030
15.835	-3.4	0.51	0.036
15.84	-3.4	0.49	0.014
15.845	-3.3	0.47	0.009
15.85	-3.3	0.45	0.037
15.855	-3.4	0.43	0.064
15.86	-3.3	0.41	0.074
15.865	-3.3	0.40	0.074
15.87	-3.5	0.38	0.121
15.875	-3.3	0.36	0.239
15.88	-2.9	0.34	0.425
15.885	-4.4	0.32	0.549
15.89	-3.2	0.30	0.514
15.895	-1.9	0.29	0.391
15.9	-3.0	0.27	0.139
15.905	-4.6	0.25	-0.074
15.91	-4.4	0.22	-0.090
15.915	-3.2	0.21	-0.061
15.92	-2.4	0.19	0.021
15.925	-2.2	0.18	0.087
15.93	-2.9	0.17	0.106
15.935	-3.5	0.15	0.114
15.94	-3.9	0.13	0.081
15.945	-3.6	0.11	0.077
15.95	-3.2	0.09	0.091
15.955	-2.9	0.08	0.072
15.96	-2.9	0.06	0.051
15.965	-3.2	0.05	0.094
15.97	-3.4	0.03	0.128
15.975	-3.1	0.02	0.081
15.98	-3.0	0.00	0.073
15.985	-3.2	-0.02	0.106
15.99	-3.4	-0.03	0.110
15.995	-3.4	-0.05	0.106
16	-3.4	-0.07	0.116
16.005	-3.7	-0.08	0.108
16.01	-3.3	-0.10	0.113
16.015	-3.6	-0.12	0.120
16.02	-4.2	-0.14	0.136
16.025	-4.3	-0.16	0.118
16.03	-4.3	-0.18	0.116
16.035	-4.5	-0.20	0.145
16.04	-4.5	-0.22	0.154
16.045	-4.7	-0.25	0.142
16.05	-4.6	-0.27	0.110
16.055	-4.5	-0.29	0.118
16.06	-4.2	-0.31	0.134
16.065	-4.0	-0.33	0.157
16.07	-3.9	-0.34	0.179
16.075	-3.6	-0.36	0.160
16.08	-3.3	-0.37	0.144
16.085	-3.1	-0.39	0.172
16.09	-2.8	-0.40	0.201
16.095	-1.9	-0.41	0.196
16.1	-1.1	-0.41	0.206
16.105	0.4	-0.41	0.204
16.11	2.5	-0.39	0.224
16.115	5.0	-0.37	0.214
16.12	7.9	-0.32	0.226
16.125	11.4	-0.27	0.254
16.13	14.9	-0.19	0.284
16.135	18.2	-0.10	0.309
16.14	21.5	0.01	0.325
16.145	24.7	0.13	0.331
16.15	27.3	0.27	0.341
16.155	29.4	0.41	0.378
16.16	31.3	0.57	0.386
16.165	32.6	0.73	0.364
16.17	33.4	0.89	0.346
16.175	33.4	1.05	0.341
16.18	31.8	1.21	0.306
16.185	31.2	1.36	0.319
16.19	30.3	1.50	0.324
16.195	28.8	1.64	0.312
16.2	26.5	1.76	0.284
16.205	23.9	1.87	0.241
16.21	21.4	1.97	0.187
16.215	18.6	2.05	0.143
16.22	15.6	2.12	0.138
16.225	12.5	2.17	0.120
16.23	9.5	2.21	0.088
16.235	6.7	2.23	0.029
16.24	4.0	2.24	0.023
16.245	1.6	2.24	0.002
16.25	-0.7	2.22	0.004
16.255	-2.7	2.20	0.010
16.26	-4.2	2.17	0.031
16.265	-5.6	2.13	0.051
16.27	-6.6	2.09	0.029
16.275	-7.3	2.04	0.003
16.28	-7.7	1.99	0.014
16.285	-7.8	1.94	0.039
16.29	-7.6	1.89	0.043
16.295	-7.0	1.85	0.041
16.3	-6.4	1.81	0.037
16.305	-5.7	1.77	0.034
16.31	-4.8	1.74	0.036
16.315	-4.1	1.71	0.025
16.32	-3.6	1.68	0.034
16.325	-3.0	1.66	0.034
16.33	-2.8	1.64	0.038
16.335	-2.7	1.62	0.047
16.34	-2.5	1.60	0.069
16.345	-2.1	1.58	0.061
16.35	-1.6	1.56	0.033
16.355	-0.9	1.55	0.031
16.36	0.1	1.54	0.023
16.365	1.1	1.54	0.029
16.37	2.0	1.54	0.025
16.375	3.1	1.55	0.019
16.38	4.2	1.56	0.021
16.385	5.1	1.58	0.029
16.39	5.9	1.60	0.027
16.395	6.8	1.63	0.022
16.4	7.4	1.66	0.033
16.405	7.9	1.69	0.017
16.41	8.4	1.72	0.020
16.415	8.7	1.76	0.026
16.42	8.8	1.79	0.028
16.425	9.0	1.83	0.030
16.43	9.0	1.86	0.004
16.435	8.8	1.90	-0.007
16.44	8.4	1.93	0.001
16.445	8.1	1.96	0.041
16.45	7.5	1.99	0.036
16.455	6.7	2.01	0.046
16.46	5.9	2.03	0.032
16.465	5.0	2.05	0.034
16.47	3.9	2.06	0.031
16.475	2.9	2.06	0.044
16.48	1.9	2.06	0.052
16.485	0.7	2.05	0.043
16.49	-0.5	2.04	0.043
16.495	-1.5	2.02	0.039
16.5	-2.6	2.00	0.026
16.505	-3.7	1.97	0.045
16.51	-4.5	1.94	0.047
16.515	-5.4	1.90	0.052
16.52	-6.2	1.86	0.046
16.525	-6.7	1.82	0.043
16.53	-7.2	1.77	0.031
16.535	-7.8	1.73	0.029
16.54	-8.2	1.68	0.014
16.545	-8.3	1.63	0.009
16.55	-8.5	1.58	0.013
16.555	-8.6	1.53	0.019
16.56	-8.5	1.48	0.014
16.565	-8.4	1.43	0.037
16.57	-8.3	1.38	0.031
16.575	-8.0	1.33	0.020
16.58	-7.6	1.29	0.041
16.585	-7.3	1.24	0.037
16.59	-6.9	1.20	0.048
16.595	-6.4	1.17	0.071
16.6	-6.0	1.13	0.089
16.605	-5.6	1.10	0.048
16.61	-5.0	1.07	0.029
16.615	-4.6	1.04	0.031
16.62	-4.2	1.01	0.017
16.625	-3.8	0.99	0.013
16.63	-3.4	0.97	0.016
16.635	-3.1	0.95	0.036
16.64	-2.8	0.93	0.058
16.645	-2.5	0.91	0.066
16.65	-2.3	0.89	0.086
16.655	-2.2	0.88	0.094
16.66	-2.0	0.86	0.089
16.665	-1.8	0.85	0.086
16.67	-1.8	0.84	0.069
16.675	-1.7	0.82	0.088
16.68	-1.5	0.81	0.071
16.685	-1.6	0.80	0.061
16.69	-1.6	0.79	0.066
16.695	-1.5	0.78	0.082
16.7	-1.6	0.76	0.088
16.705	-1.7	0.75	0.089
16.71	-1.7	0.74	0.083
16.715	-1.7	0.73	0.045
16.72	-1.9	0.71	0.019
16.725	-1.9	0.70	0.043
16.73	-1.9	0.69	0.035
16.735	-2.1	0.67	0.050
16.74	-2.1	0.66	0.058
16.745	-2.1	0.65	0.033
16.75	-2.2	0.63	0.020
16.755	-2.3	0.62	0.040
16.76	-2.2	0.60	0.037
16.765	-2.3	0.59	0.050
16.77	-2.5	0.57	0.066
16.775	-2.5	0.56	0.027
16.78	-2.5	0.54	0.014
16.785	-2.7	0.53	0.015
16.79	-2.8	0.51	0.018
16.795	-2.8	0.49	0.031
16.8	-3.0	0.48	0.048
16.805	-3.2	0.46	0.031
16.81	-3.2	0.44	0.064
16.815	-3.3	0.42	0.158
16.82	-3.5	0.40	0.326
16.825	-3.5	0.38	0.486
16.83	-3.4	0.36	0.555
16.835	-3.6	0.34	0.456
16.84	-3.6	0.32	0.278
16.845	-3.6	0.30	-0.007
16.85	-3.6	0.28	-0.170
16.855	-3.7	0.26	-0.139
16.86	-3.6	0.25	-0.044
16.865	-3.5	0.23	0.029
16.87	-3.6	0.21	0.068
16.875	-3.6	0.19	0.105
16.88	-3.6	0.17	0.126
16.885	-3.8	0.15	0.117
16.89	-3.7	0.13	0.109
16.895	-3.7	0.11	0.064
16.9	-3.7	0.09	0.053
16.905	-3.8	0.07	0.076
16.91	-3.7	0.05	0.106
16.915	-3.8	0.03	0.121
16.92	-4.0	0.01	0.115
16.925	-4.0	-0.01	0.084
16.93	-4.1	-0.03	0.073
16.935	-4.3	-0.05	0.073
16.94	-4.4	-0.07	0.086
16.945	-4.4	-0.09	0.064
16.95	-4.5	-0.11	0.092
16.955	-4.6	-0.14	0.109
16.96	-4.5	-0.16	0.099
16.965	-4.5	-0.18	0.082
16.97	-4.7	-0.20	0.086
16.975	-4.7	-0.23	0.096
16.98	-4.8	-0.25	0.120
16.985	-4.8	-0.27	0.139
16.99	-4.7	-0.29	0.112
16.995	-4.4	-0.31	0.095
17	-4.2	-0.33	0.109
17.005	-4.1	-0.35	0.123
17.01	-3.8	-0.37	0.109
17.015	-3.6	-0.39	0.134
17.02	-3.5	-0.40	0.159
17.025	-3.3	-0.42	0.196
17.03	-3.0	-0.43	0.196
17.035	-2.9	-0.44	0.186
17.04	-2.4	-0.45	0.174
17.045	-1.7	-0.46	0.186
17.05	-0.6	-0.46	0.192
17.055	0.8	-0.45	0.216
17.06	3.1	-0.43	0.223
17.065	5.6	-0.40	0.249
17.07	8.6	-0.36	0.255
17.075	12.0	-0.30	0.281
17.08	15.5	-0.22	0.306
17.085	18.8	-0.12	0.307
17.09	22.1	-0.01	0.324
17.095	25.1	0.11	0.352
17.1	27.7	0.25	0.361
17.105	29.8	0.40	0.346
17.11	31.7	0.55	0.348
17.115	32.9	0.72	0.364
17.12	33.5	0.88	0.368
17.125	33.9	1.05	0.352
17.13	33.6	1.21	0.351
17.135	32.6	1.37	0.323
17.14	31.2	1.51	0.281
17.145	29.3	1.65	0.234
17.15	27.0	1.78	0.194
17.155	24.5	1.89	0.157
17.16	21.9	1.99	0.137
17.165	18.9	2.08	0.126
17.17	15.9	2.15	0.099
17.175	12.9	2.20	0.099
17.18	9.9	2.24	0.104
17.185	6.8	2.26	0.059
17.19	4.1	2.27	0.022
17.195	1.7	2.27	0.006
17.2	-0.7	2.25	0.007
17.205	-2.8	2.23	0.037
17.21	-4.5	2.19	0.011
17.215	-5.9	2.15	0.017
17.22	-7.2	2.11	0.014
17.225	-7.9	2.06	0.005
17.23	-8.3	2.01	0.033
17.235	-8.5	1.95	0.052
17.24	-8.4	1.90	0.051
17.245	-8.0	1.85	0.033
17.25	-7.6	1.80	0.010
17.255	-7.1	1.76	0.005
17.26	-6.5	1.72	0.033
17.265	-6.0	1.68	0.028
17.27	-5.8	1.64	0.042
17.275	-5.5	1.61	0.060
17.28	-5.3	1.57	0.045
17.285	-5.2	1.54	0.010
17.29	-4.8	1.51	0.023
17.295	-4.0	1.48	0.055
17.3	-3.3	1.45	0.072
17.305	-2.3	1.44	0.079
17.31	-1.0	1.42	0.044
17.315	0.3	1.42	0.040
17.32	1.6	1.42	0.032
17.325	3.1	1.43	0.030
17.33	4.5	1.44	0.028
17.335	5.6	1.46	0.044
17.34	6.7	1.49	0.011
17.345	7.8	1.52	0.003
17.35	8.6	1.56	0.033
17.355	9.2	1.60	0.064
17.36	9.9	1.64	0.041
17.365	10.2	1.68	0.043
17.37	10.4	1.72	0.058
17.375	10.6	1.77	0.021
17.38	10.6	1.81	0.016
17.385	10.3	1.85	0.032
17.39	9.9	1.89	0.033
17.395	9.4	1.93	0.049
17.4	8.7	1.97	0.056
17.405	7.7	2.00	0.060
17.41	6.9	2.02	0.049
17.415	5.8	2.04	0.019
17.42	4.5	2.05	0.044
17.425	3.3	2.06	0.063
17.43	2.1	2.06	0.041
17.435	0.7	2.05	0.014
17.44	-0.5	2.04	0.003
17.445	-1.6	2.02	0.007
17.45	-2.8	2.00	0.039
17.455	-4.0	1.97	0.048
17.46	-4.9	1.93	0.034
17.465	-5.8	1.89	0.058
17.47	-6.7	1.85	0.048
17.475	-7.3	1.80	0.052
17.48	-7.9	1.76	0.032
17.485	-8.4	1.71	0.021
17.49	-8.7	1.65	0.043
17.495	-8.8	1.60	0.050
17.5	-9.0	1.55	0.018
17.505	-9.1	1.49	0.035
17.51	-8.9	1.44	0.028
17.515	-8.8	1.39	0.024
17.52	-8.6	1.34	0.041
17.525	-8.3	1.29	0.046
17.53	-7.9	1.25	0.039
17.535	-7.6	1.20	0.056
17.54	-7.2	1.16	0.049
17.545	-6.7	1.12	0.043
17.55	-6.3	1.09	0.034
17.555	-5.9	1.05	0.025
17.56	-5.3	1.02	0.048
17.565	-4.9	0.99	0.039
17.57	-4.5	0.96	0.026
17.575	-4.0	0.94	0.007
17.58	-3.6	0.91	0.019
17.585	-3.3	0.89	0.033
17.59	-2.9	0.87	0.057
17.595	-2.5	0.86	0.058
17.6	-2.3	0.84	0.056
17.605	-2.1	0.83	0.037
17.61	-1.8	0.81	0.055
17.615	-1.7	0.80	0.084
17.62	-1.7	0.79	0.098
17.625	-1.6	0.78	0.101
17.63	-1.5	0.77	0.098
17.635	-1.5	0.75	0.082
17.64	-1.5	0.74	0.057
17.645	-1.5	0.73	0.057
17.65	-1.6	0.72	0.072
17.655	-1.7	0.71	0.066
17.66	-1.7	0.70	0.079
17.665	-1.7	0.69	0.082
17.67	-1.8	0.67	0.078
17.675	-1.7	0.66	0.061
17.68	-1.7	0.65	0.068
17.685	-1.8	0.64	0.077
17.69	-1.9	0.62	0.063
17.695	-1.8	0.61	0.036
17.7	-2.0	0.60	0.018
17.705	-2.1	0.59	0.027
17.71	-2.0	0.57	0.034
17.715	-2.1	0.56	0.036
17.72	-2.2	0.55	0.034
17.725	-2.3	0.53	0.018
17.73	-2.4	0.52	0.008
17.735	-2.6	0.50	0.011
17.74	-2.7	0.49	0.012
17.745	-2.7	0.47	0.009
17.75	-2.8	0.45	-0.012
17.755	-3.0	0.44	0.000
17.76	-3.0	0.42	0.019
17.765	-3.1	0.40	0.024
17.77	-3.3	0.38	0.018
17.775	-3.3	0.36	0.024
17.78	-3.3	0.35	0.042
17.785	-3.5	0.33	0.052
17.79	-3.6	0.31	0.113
17.795	-3.6	0.29	0.278
17.8	-3.7	0.27	0.478
17.805	-3.8	0.25	0.583
17.81	-3.7	0.23	0.504
17.815	-3.7	0.21	0.305
17.82	-3.8	0.19	0.059
17.825	-3.8	0.17	-0.056
17.83	-3.8	0.15	-0.041
17.835	-3.9	0.13	-0.009
17.84	-3.8	0.11	0.066
17.845	-3.7	0.09	0.128
17.85	-3.8	0.07	0.117
17.855	-3.8	0.05	0.091
17.86	-3.7	0.03	0.060
17.865	-3.6	0.01	0.054
17.87	-3.7	-0.00	0.041
17.875	-3.5	-0.02	0.047
17.88	-3.5	-0.04	0.050
17.885	-3.5	-0.06	0.046
17.89	-3.5	-0.07	0.061
17.895	-3.5	-0.09	0.079
17.9	-3.7	-0.11	0.101
17.905	-3.9	-0.13	0.104
17.91	-3.9	-0.15	0.092
17.915	-4.0	-0.17	0.099
17.92	-4.1	-0.19	0.111
17.925	-4.0	-0.20	0.079
17.93	-4.0	-0.22	0.089
17.935	-4.1	-0.24	0.110
17.94	-4.2	-0.26	0.101
17.945	-4.3	-0.28	0.116
17.95	-4.4	-0.30	0.103
17.955	-4.4	-0.32	0.099
17.96	-4.3	-0.34	0.111
17.965	-4.2	-0.36	0.094
17.97	-4.1	-0.38	0.080
17.975	-3.8	-0.40	0.084
17.98	-3.5	-0.41	0.100
17.985	-3.3	-0.43	0.098
17.99	-3.1	-0.44	0.099
17.995	-2.7	-0.45	0.115
18	-2.4	-0.46	0.131
18.005	-2.0	-0.47	0.135
18.01	-1.2	-0.47	0.126
18.015	-0.0	-0.47	0.158
18.02	1.7	-0.46	0.186
18.025	4.1	-0.44	0.167
18.03	7.1	-0.40	0.179
18.035	10.4	-0.35	0.193
18.04	14.2	-0.27	0.216
18.045	18.2	-0.18	0.250
18.05	22.0	-0.07	0.259
18.055	25.7	0.06	0.247
18.06	29.1	0.20	0.272
18.065	32.0	0.36	0.278
18.07	34.5	0.53	0.273
18.075	36.5	0.71	0.277
18.08	38.0	0.90	0.294
18.085	38.8	1.09	0.306
18.09	39.0	1.28	0.328
18.095	38.8	1.47	0.331
18.1	37.7	1.65	0.315
18.105	36.1	1.82	0.315
18.11	33.9	1.98	0.296
18.115	31.2	2.12	0.259
18.12	28.2	2.26	0.223
18.125	25.2	2.37	0.204
18.13	21.8	2.47	0.164
18.135	18.4	2.55	0.124
18.14	15.0	2.61	0.089
18.145	11.8	2.66	0.095
18.15	8.5	2.68	0.077
18.155	5.5	2.70	0.071
18.16	2.8	2.70	0.052
18.165	0.2	2.69	0.039
18.17	-2.1	2.66	0.014
18.175	-3.9	2.63	-0.002
18.18	-5.4	2.59	-0.001
18.185	-6.6	2.54	0.013
18.19	-7.3	2.49	0.025
18.195	-7.6	2.44	0.037
18.2	-7.7	2.39	0.031
18.205	-7.5	2.34	0.018
18.21	-6.9	2.30	0.019
18.215	-6.2	2.26	0.004
18.22	-5.3	2.22	0.029
18.225	-4.3	2.19	0.059
18.23	-3.3	2.16	0.036
18.235	-2.7	2.13	0.033
18.24	-2.0	2.11	0.042
18.245	-1.6	2.09	0.024
18.25	-1.4	2.08	0.013
18.255	-1.3	2.06	0.007
18.26	-1.0	2.04	0.029
18.265	-0.7	2.03	0.059
18.27	-0.2	2.02	0.016
18.275	0.6	2.01	0.027
18.28	1.5	2.01	0.034
18.285	2.3	2.01	0.046
18.29	3.3	2.02	0.042
18.295	4.4	2.03	0.041
18.3	5.2	2.05	0.049
18.305	6.0	2.07	0.071
18.31	6.9	2.09	0.073
18.315	7.5	2.12	0.046
18.32	7.9	2.15	0.037
18.325	8.5	2.18	0.025
18.33	8.9	2.21	0.031
18.335	9.1	2.25	0.034
18.34	9.2	2.28	0.019
18.345	9.3	2.32	0.018
18.35	9.2	2.35	0.028
18.355	8.9	2.38	0.041
18.36	8.6	2.41	0.031
18.365	8.1	2.44	0.020
18.37	7.4	2.47	0.048
18.375	6.7	2.49	0.034
18.38	5.9	2.51	0.028
18.385	4.8	2.52	0.014
18.39	3.8	2.52	-0.003
18.395	2.8	2.52	0.012
18.4	1.7	2.52	0.024
18.405	0.5	2.51	0.041
18.41	-0.6	2.50	0.047
18.415	-1.7	2.47	0.063
18.42	-2.8	2.45	0.044
18.425	-3.8	2.42	0.038
18.43	-4.7	2.38	0.046
18.435	-5.6	2.34	0.034
18.44	-6.4	2.30	0.049
18.445	-6.9	2.25	0.039
18.45	-7.5	2.20	0.037
18.455	-7.9	2.15	0.046
18.46	-8.1	2.10	0.044
18.465	-8.4	2.05	0.037
18.47	-8.6	2.00	0.049
18.475	-8.6	1.94	0.043
18.48	-8.5	1.89	0.043
18.485	-8.5	1.84	0.054
18.49	-8.3	1.79	0.052
18.495	-8.1	1.74	0.054
18.5	-7.9	1.69	0.059
18.505	-7.7	1.64	0.049
18.51	-7.2	1.60	0.051
18.515	-6.9	1.56	0.065
18.52	-6.6	1.52	0.063
18.525	-6.2	1.48	0.043
18.53	-5.8	1.44	0.030
18.535	-5.5	1.41	0.033
18.54	-5.1	1.37	0.046
18.545	-4.7	1.34	0.036
18.55	-4.4	1.31	0.048
18.555	-4.0	1.29	0.043
18.56	-3.6	1.26	0.052
18.565	-3.3	1.24	0.037
18.57	-3.0	1.22	0.050
18.575	-2.7	1.20	0.033
18.58	-2.3	1.18	0.054
18.585	-2.1	1.17	0.061
18.59	-1.9	1.15	0.081
18.595	-1.6	1.14	0.089
18.6	-1.6	1.12	0.088
18.605	-1.5	1.11	0.083
18.61	-1.3	1.10	0.091
18.615	-1.4	1.09	0.077
18.62	-1.5	1.07	0.089
18.625	-1.4	1.06	0.097
18.63	-1.5	1.05	0.105
18.635	-1.7	1.03	0.106
18.64	-1.7	1.02	0.089
18.645	-1.7	1.01	0.083
18.65	-1.9	0.99	0.103
18.655	-2.0	0.98	0.094
18.66	-2.0	0.96	0.071
18.665	-2.2	0.95	0.039
18.67	-2.4	0.93	0.044
18.675	-2.5	0.91	0.063
18.68	-2.6	0.90	0.054
18.685	-2.8	0.88	0.050
18.69	-3.0	0.86	0.045
18.695	-3.0	0.84	0.058
18.7	-3.2	0.82	0.058
18.705	-3.3	0.80	0.064
18.71	-3.2	0.78	0.087
18.715	-3.3	0.76	0.054
18.72	-3.5	0.74	0.017
18.725	-3.5	0.72	0.024
18.73	-3.5	0.69	0.039
18.735	-3.7	0.67	0.039
18.74	-3.7	0.65	0.048
18.745	-3.7	0.63	0.039
18.75	-3.9	0.61	0.061
18.755	-4.0	0.58	0.094
18.76	-4.1	0.56	0.130
18.765	-4.2	0.54	0.236
18.77	-4.3	0.51	0.427
18.775	-4.3	0.49	0.590
18.78	-4.4	0.46	0.579
18.785	-4.5	0.44	0.434
18.79	-4.5	0.41	0.156
18.795	-4.5	0.39	-0.071
18.8	-4.7	0.36	-0.077
18.805	-4.7	0.34	-0.001
18.81	-4.7	0.31	0.057
18.815	-4.7	0.29	0.119
18.82	-4.8	0.26	0.164
18.825	-4.7	0.24	0.157
18.83	-4.6	0.21	0.114
18.835	-4.6	0.19	0.091
18.84	-4.5	0.17	0.092
18.845	-4.3	0.14	0.081
18.85	-4.4	0.12	0.074
18.855	-4.3	0.10	0.070
18.86	-4.2	0.08	0.069
18.865	-4.1	0.06	0.093
18.87	-4.2	0.04	0.113
18.875	-4.2	0.01	0.116
18.88	-4.2	-0.01	0.101
18.885	-4.4	-0.03	0.103
18.89	-4.3	-0.05	0.095
18.895	-4.3	-0.07	0.121
18.9	-4.3	-0.09	0.106
18.905	-4.5	-0.11	0.078
18.91	-4.4	-0.14	0.100
18.915	-4.6	-0.16	0.131
18.92	-4.8	-0.18	0.144
18.925	-4.8	-0.20	0.143
18.93	-4.8	-0.23	0.134
18.935	-4.9	-0.25	0.147
18.94	-4.7	-0.27	0.151
18.945	-4.5	-0.29	0.145
18.95	-4.4	-0.31	0.157
18.955	-4.3	-0.33	0.165
18.96	-4.0	-0.35	0.147
18.965	-3.9	-0.37	0.143
18.97	-3.8	-0.39	0.161
18.975	-3.5	-0.40	0.164
18.98	-3.1	-0.42	0.171
18.985	-2.6	-0.43	0.171
18.99	-1.5	-0.43	0.203
18.995	0.2	-0.43	0.222
19	2.4	-0.42	0.216
19.005	5.2	-0.39	0.231
19.01	8.7	-0.34	0.241
19.015	12.4	-0.28	0.245
19.02	16.1	-0.20	0.275
19.025	20.1	-0.09	0.286
19.03	23.8	0.02	0.290
19.035	27.1	0.16	0.318
19.04	30.2	0.31	0.354
19.045	32.7	0.47	0.359
19.05	34.7	0.64	0.369
19.055	36.2	0.82	0.383
19.06	37.2	1.00	0.371
19.065	37.4	1.19	0.368
19.07	37.1	1.36	0.324
19.075	36.3	1.54	0.323
19.08	34.8	1.71	0.342
19.085	32.8	1.86	0.309
19.09	30.4	2.00	0.260
19.095	27.7	2.13	0.211
19.1	24.5	2.24	0.186
19.105	21.1	2.34	0.166
19.11	17.8	2.42	0.106
19.115	14.4	2.48	0.103
19.12	11.0	2.52	0.117
19.125	7.9	2.55	0.089
19.13	4.8	2.56	0.039
19.135	1.9	2.55	0.027
19.14	-0.7	2.54	0.032
19.145	-3.0	2.51	0.033
19.15	-4.9	2.47	0.024
19.155	-6.5	2.43	0.031
19.16	-7.6	2.38	0.026
19.165	-8.6	2.32	0.031
19.17	-9.2	2.26	0.049
19.175	-9.3	2.21	0.037
19.18	-9.1	2.15	0.006
19.185	-8.7	2.10	0.008
19.19	-8.0	2.05	0.005
19.195	-7.1	2.00	0.011
19.2	-6.4	1.96	0.037
19.205	-5.6	1.92	0.044
19.21	-4.9	1.89	0.018
19.215	-4.4	1.85	0.016
19.22	-4.2	1.82	0.034
19.225	-3.9	1.80	0.048
19.23	-3.7	1.77	0.044
19.235	-3.4	1.74	0.063
19.24	-2.8	1.72	0.039
19.245	-1.9	1.70	0.023
19.25	-1.1	1.69	0.013
19.255	-0.1	1.68	0.024
19.26	1.2	1.68	0.032
19.265	2.4	1.68	0.028
19.27	3.5	1.69	0.051
19.275	4.8	1.71	0.056
19.28	5.8	1.73	0.048
19.285	6.6	1.75	0.050
19.29	7.5	1.78	0.046
19.295	8.2	1.81	0.024
19.3	8.7	1.85	0.001
19.305	9.1	1.88	-0.003
19.31	9.4	1.92	-0.004
19.315	9.5	1.96	0.000
19.32	9.5	1.99	-0.004
19.325	9.3	2.03	0.014
19.33	9.0	2.07	0.033
19.335	8.4	2.10	0.053
19.34	7.9	2.13	0.034
19.345	7.2	2.15	0.024
19.35	6.3	2.17	0.037
19.355	5.3	2.19	0.022
19.36	4.3	2.20	0.001
19.365	3.1	2.20	0.022
19.37	1.9	2.20	0.042
19.375	0.7	2.20	0.026
19.38	-0.5	2.18	0.031
19.385	-1.7	2.16	0.014
19.39	-2.9	2.14	0.021
19.395	-3.9	2.11	0.045
19.4	-5.0	2.07	0.048
19.405	-6.0	2.03	0.066
19.41	-6.7	1.99	0.065
19.415	-7.4	1.94	0.039
19.42	-8.1	1.89	0.027
19.425	-8.5	1.84	0.006
19.43	-8.9	1.79	0.007
19.435	-9.3	1.73	0.046
19.44	-9.5	1.67	0.066
19.445	-9.5	1.62	0.054
19.45	-9.6	1.56	0.049
19.455	-9.6	1.51	0.026
19.46	-9.3	1.45	0.041
19.465	-9.1	1.40	0.039
19.47	-8.9	1.35	0.024
19.475	-8.5	1.30	0.020
19.48	-8.1	1.25	0.011
19.485	-7.8	1.21	0.007
19.49	-7.3	1.16	0.058
19.495	-6.8	1.12	0.039
19.5	-6.5	1.09	0.026
19.505	-6.0	1.05	0.023
19.51	-5.6	1.02	0.030
19.515	-5.2	0.99	0.041
19.52	-4.8	0.96	0.050
19.525	-4.3	0.93	0.058
19.53	-3.9	0.91	0.076
19.535	-3.6	0.89	0.084
19.54	-3.2	0.86	0.065
19.545	-2.9	0.85	0.074
19.55	-2.7	0.83	0.066
19.555	-2.5	0.81	0.050
19.56	-2.2	0.80	0.066
19.565	-2.0	0.78	0.068
19.57	-2.0	0.77	0.052
19.575	-1.8	0.76	0.068
19.58	-1.7	0.74	0.096
19.585	-1.8	0.73	0.094
19.59	-1.8	0.72	0.089
19.595	-1.7	0.71	0.078
19.6	-1.8	0.69	0.037
19.605	-1.9	0.68	0.052
19.61	-1.9	0.67	0.088
19.615	-2.1	0.65	0.035
19.62	-2.2	0.64	0.000
19.625	-2.2	0.63	0.018
19.63	-2.3	0.61	0.028
19.635	-2.4	0.60	0.029
19.64	-2.5	0.58	0.013
19.645	-2.5	0.57	0.004
19.65	-2.7	0.55	0.049
19.655	-2.7	0.53	0.043
19.66	-2.7	0.52	0.038
19.665	-2.8	0.50	0.047
19.67	-3.0	0.48	0.041
19.675	-3.0	0.47	0.016
19.68	-3.0	0.45	0.033
19.685	-3.2	0.43	0.061
19.69	-3.2	0.41	0.064
19.695	-3.2	0.39	0.157
19.7	-3.3	0.38	0.328
19.705	-3.4	0.36	0.485
19.71	-3.4	0.34	0.516
19.715	-3.4	0.32	0.399
19.72	-3.5	0.30	0.226
19.725	-3.5	0.28	-0.019
19.73	-3.4	0.26	-0.140
19.735	-3.6	0.24	-0.131
19.74	-3.5	0.22	-0.061
19.745	-3.5	0.21	0.012
19.75	-3.6	0.19	0.091
19.755	-3.7	0.17	0.122
19.76	-3.6	0.15	0.094
19.765	-3.7	0.13	0.079
19.77	-3.8	0.11	0.063
19.775	-3.8	0.09	0.042
19.78	-3.8	0.07	0.064
19.785	-4.0	0.05	0.077
19.79	-4.1	0.03	0.086
19.795	-4.1	0.01	0.108
19.8	-4.3	-0.01	0.071
19.805	-4.5	-0.03	0.063
19.81	-4.5	-0.06	0.081
19.815	-4.7	-0.08	0.106
19.82	-4.8	-0.10	0.076
19.825	-4.8	-0.13	0.056
19.83	-4.9	-0.15	0.083
19.835	-5.0	-0.18	0.102
19.84	-5.0	-0.20	0.096
19.845	-5.1	-0.22	0.092
19.85	-5.3	-0.25	0.088
19.855	-5.4	-0.28	0.114
19.86	-5.4	-0.30	0.128
19.865	-5.4	-0.33	0.123
19.87	-5.5	-0.35	0.114
19.875	-5.2	-0.38	0.109
19.88	-5.0	-0.40	0.097
19.885	-4.9	-0.42	0.136
19.89	-4.6	-0.44	0.152
19.895	-4.4	-0.46	0.144
19.9	-4.3	-0.48	0.168
19.905	-4.2	-0.50	0.175
19.91	-4.0	-0.52	0.154
19.915	-3.8	-0.53	0.149
19.92	-3.6	-0.55	0.168
19.925	-3.0	-0.56	0.174
19.93	-2.3	-0.57	0.188
19.935	-1.3	-0.58	0.229
19.94	0.3	-0.57	0.259
19.945	2.6	-0.55	0.264
19.95	5.2	-0.53	0.283
19.955	8.4	-0.48	0.297
19.96	11.9	-0.42	0.321
19.965	15.4	-0.34	0.311
19.97	18.9	-0.24	0.318
19.975	22.4	-0.13	0.354
19.98	25.5	-0.00	0.366
19.985	28.2	0.14	0.379
19.99	30.6	0.29	0.346
19.995	32.4	0.45	0.333
20	33.7	0.62	0.356
20.005	34.3	0.79	0.362
20.01	34.6	0.95	0.325
20.015	34.1	1.12	0.302
20.02	33.1	1.28	0.234
20.025	31.7	1.43	0.212
20.03	29.8	1.57	0.206
20.035	27.5	1.70	0.141
20.04	24.9	1.82	0.116
20.045	22.1	1.92	0.076
20.05	18.9	2.01	0.047
20.055	15.7	2.07	0.034
20.06	12.6	2.13	0.033
20.065	9.4	2.16	0.031
20.07	6.3	2.18	0.032
20.075	3.5	2.19	0.026
20.08	0.8	2.18	0.026
20.085	-1.8	2.16	0.026
20.09	-4.1	2.13	0.022
20.095	-5.9	2.09	-0.009
20.1	-7.6	2.04	-0.012
20.105	-9.0	1.99	0.012
20.11	-9.8	1.93	0.009
20.115	-10.5	1.87	-0.014
20.12	-10.9	1.80	-0.028
20.125	-10.9	1.74	-0.009
20.13	-10.8	1.68	-0.015
20.135	-10.6	1.62	-0.004
20.14	-10.3	1.56	0.017
20.145	-9.9	1.50	0.007
20.15	-9.8	1.44	0.009
20.155	-9.6	1.39	0.006
20.16	-9.3	1.33	0.018
20.165	-9.0	1.28	0.009
20.17	-8.5	1.23	0.028
20.175	-7.7	1.19	0.019
20.18	-6.7	1.15	0.020
20.185	-5.6	1.12	0.020
20.19	-4.0	1.09	0.021
20.195	-2.4	1.07	0.014
20.2	-0.7	1.06	0.011
20.205	1.0	1.06	0.043
20.21	2.8	1.07	0.038
20.215	4.4	1.09	0.051
20.22	5.9	1.11	0.048
20.225	7.5	1.15	0.038
20.23	8.7	1.18	0.026
20.235	9.7	1.23	0.049
20.24	10.7	1.27	0.036
20.245	11.6	1.32	0.028
20.25	12.1	1.38	0.014
20.255	12.5	1.43	0.014
20.26	12.8	1.49	0.024
20.265	12.7	1.55	0.028
20.27	12.4	1.60	0.022
20.275	12.0	1.65	0.014
20.28	11.4	1.70	0.022
20.285	10.4	1.75	0.013
20.29	9.4	1.78	0.018
20.295	8.2	1.82	0.037
20.3	6.8	1.84	0.009
20.305	5.3	1.86	0.008
20.31	3.9	1.87	0.022
20.315	2.4	1.87	0.013
20.32	0.6	1.86	0.032
20.325	-0.8	1.85	0.048
20.33	-2.3	1.83	0.028
20.335	-3.8	1.80	0.029
20.34	-5.0	1.77	0.018
20.345	-6.1	1.73	0.033
20.35	-7.2	1.68	0.046
20.355	-8.1	1.64	0.017
20.36	-8.7	1.58	0.036
20.365	-9.3	1.53	0.049
20.37	-9.8	1.47	0.013
20.375	-10.1	1.42	0.019
20.38	-10.2	1.36	0.026
20.385	-10.4	1.30	0.022
20.39	-10.3	1.24	0.036
20.395	-10.1	1.18	0.041
20.4	-9.9	1.13	0.026
20.405	-9.6	1.07	0.036
20.41	-9.1	1.02	0.026
20.415	-8.7	0.98	0.024
20.42	-8.2	0.93	0.031
20.425	-7.6	0.89	0.029
20.43	-7.1	0.85	0.034
20.435	-6.6	0.81	0.031
20.44	-6.0	0.78	0.010
20.445	-5.4	0.75	0.014
20.45	-4.9	0.72	0.028
20.455	-4.4	0.69	0.043
20.46	-3.8	0.67	0.070
20.465	-3.5	0.65	0.052
20.47	-3.2	0.63	0.060
20.475	-2.7	0.61	0.065
20.48	-2.3	0.60	0.066
20.485	-2.1	0.58	0.063
20.49	-1.8	0.57	0.050
20.495	-1.6	0.56	0.064
20.5	-1.5	0.55	0.070
20.505	-1.3	0.54	0.064
20.51	-1.1	0.53	0.054
20.515	-1.1	0.53	0.044
20.52	-1.1	0.52	0.052
20.525	-1.0	0.51	0.054
20.53	-1.0	0.50	0.061
20.535	-1.1	0.49	0.053
20.54	-1.1	0.49	0.061
20.545	-1.1	0.48	0.043
20.55	-1.3	0.47	0.019
20.555	-1.4	0.46	-0.006
20.56	-1.4	0.45	0.011
20.565	-1.5	0.44	0.023
20.57	-1.7	0.43	0.051
20.575	-1.6	0.42	0.040
20.58	-1.7	0.41	0.018
20.585	-1.8	0.40	0.000
20.59	-1.8	0.39	-0.003
20.595	-1.9	0.38	0.013
20.6	-2.0	0.36	0.021
20.605	-2.2	0.35	0.020
20.61	-2.2	0.34	0.028
20.615	-2.3	0.33	0.031
20.62	-2.5	0.31	0.058
20.625	-2.5	0.30	0.068
20.63	-2.5	0.28	0.096
20.635	-2.8	0.27	0.226
20.64	-2.7	0.25	0.398
20.645	-2.7	0.24	0.523
20.65	-2.8	0.22	0.501
20.655	-3.0	0.21	0.366
20.66	-2.9	0.19	0.105
20.665	-3.0	0.18	-0.119
20.67	-3.1	0.16	-0.125
20.675	-3.0	0.14	-0.043
20.68	-3.0	0.13	0.035
20.685	-3.1	0.11	0.106
20.69	-3.2	0.10	0.140
20.695	-3.1	0.08	0.118
20.7	-3.3	0.06	0.074
20.705	-3.3	0.05	0.069
20.71	-3.2	0.03	0.079
20.715	-3.2	0.01	0.074
20.72	-3.4	-0.00	0.059
20.725	-3.3	-0.02	0.074
20.73	-3.4	-0.04	0.087
20.735	-3.6	-0.06	0.095
20.74	-3.7	-0.07	0.100
20.745	-3.8	-0.09	0.094
20.75	-4.1	-0.11	0.100
20.755	-4.2	-0.13	0.077
20.76	-4.3	-0.15	0.072
20.765	-4.4	-0.17	0.077
20.77	-4.5	-0.20	0.076
20.775	-4.4	-0.22	0.088
20.78	-4.4	-0.24	0.101
20.785	-4.7	-0.26	0.103
20.79	-4.7	-0.28	0.117
20.795	-4.8	-0.30	0.131
20.8	-4.9	-0.33	0.113
20.805	-4.9	-0.35	0.079
20.81	-4.7	-0.37	0.084
20.815	-4.6	-0.39	0.090
20.82	-4.4	-0.41	0.091
20.825	-4.1	-0.43	0.084
20.83	-3.8	-0.45	0.094
20.835	-3.6	-0.47	0.111
20.84	-3.3	-0.48	0.135
20.845	-2.9	-0.49	0.122
20.85	-2.6	-0.50	0.122
20.855	-1.8	-0.51	0.128
20.86	-0.6	-0.51	0.133
20.865	1.2	-0.50	0.163
20.87	3.6	-0.48	0.164
20.875	6.8	-0.44	0.172
20.88	10.5	-0.39	0.165
20.885	14.5	-0.31	0.204
20.89	18.8	-0.22	0.231
20.895	23.1	-0.10	0.244
20.9	27.0	0.03	0.266
20.905	30.7	0.19	0.238
20.91	34.0	0.36	0.287
20.915	36.8	0.54	0.310
20.92	38.9	0.73	0.313
20.925	40.6	0.93	0.328
20.93	41.5	1.13	0.320
20.935	41.9	1.34	0.291
20.94	41.7	1.54	0.319
20.945	40.7	1.73	0.324
20.95	38.9	1.92	0.293
20.955	36.7	2.09	0.268
20.96	34.2	2.25	0.225
20.965	31.0	2.40	0.214
20.97	27.6	2.52	0.194
20.975	24.0	2.63	0.139
20.98	20.4	2.72	0.099
20.985	16.6	2.79	0.063
20.99	13.0	2.84	0.060
20.995	9.5	2.87	0.051
21	6.1	2.89	0.056
21.005	3.0	2.89	0.043
21.01	0.4	2.88	0.018
21.015	-2.2	2.85	0.022
21.02	-4.4	2.82	0.019
21.025	-6.1	2.77	0.026
21.03	-7.5	2.72	0.007
21.035	-8.5	2.66	0.014
21.04	-9.0	2.61	0.017
21.045	-9.1	2.55	0.012
21.05	-9.1	2.49	0.030
21.055	-8.7	2.43	0.021
21.06	-8.0	2.38	0.016
21.065	-7.2	2.33	0.004
21.07	-6.4	2.29	0.018
21.075	-5.5	2.25	0.026
21.08	-4.8	2.22	0.030
21.085	-4.3	2.18	0.023
21.09	-3.8	2.15	0.021
21.095	-3.5	2.13	0.029
21.1	-3.3	2.10	0.013
21.105	-2.9	2.07	0.007
21.11	-2.2	2.05	0.003
21.115	-1.4	2.03	0.050
21.12	-0.4	2.02	0.035
21.125	0.9	2.02	0.002
21.13	2.3	2.02	0.016
21.135	3.6	2.03	0.049
21.14	5.0	2.04	0.053
21.145	6.3	2.06	0.013
21.15	7.4	2.09	0.000
21.155	8.4	2.12	0.006
21.16	9.3	2.16	0.007
21.165	10.0	2.20	0.004
21.17	10.5	2.24	0.016
21.175	11.0	2.28	0.033
21.18	11.3	2.33	0.031
21.185	11.4	2.37	0.035
21.19	11.4	2.42	0.028
21.195	11.3	2.46	0.010
21.2	10.7	2.50	0.013
21.205	10.2	2.54	0.022
21.21	9.7	2.58	0.045
21.215	8.9	2.61	0.036
21.22	7.9	2.64	0.006
21.225	7.0	2.66	0.016
21.23	5.8	2.67	-0.003
21.235	4.5	2.68	-0.012
21.24	3.2	2.68	0.002
21.245	2.0	2.68	-0.005
21.25	0.6	2.67	0.000
21.255	-0.7	2.65	0.016
21.26	-1.9	2.63	0.033
21.265	-3.1	2.60	0.014
21.27	-4.4	2.57	-0.002
21.275	-5.4	2.53	0.036
21.28	-6.4	2.48	0.050
21.285	-7.4	2.43	0.011
21.29	-8.1	2.38	0.017
21.295	-8.6	2.33	0.039
21.3	-9.2	2.27	0.038
21.305	-9.6	2.21	0.007
21.31	-9.7	2.15	0.014
21.315	-9.9	2.09	0.028
21.32	-10.0	2.03	0.021
21.325	-9.8	1.97	0.003
21.33	-9.6	1.91	0.011
21.335	-9.4	1.86	0.058
21.34	-9.0	1.80	0.066
21.345	-8.6	1.75	0.033
21.35	-8.2	1.70	0.028
21.355	-7.9	1.65	0.041
21.36	-7.2	1.61	0.036
21.365	-6.7	1.57	0.047
21.37	-6.4	1.53	0.052
21.375	-5.6	1.49	0.043
21.38	-5.2	1.46	0.027
21.385	-4.9	1.43	0.018
21.39	-4.2	1.40	-0.004
21.395	-3.9	1.37	0.000
21.4	-3.4	1.35	0.036
21.405	-3.1	1.33	0.072
21.41	-2.5	1.31	0.061
21.415	-2.5	1.29	0.071
21.42	-2.2	1.27	0.102
21.425	-2.1	1.25	0.108
21.43	-1.7	1.24	0.100
21.435	-1.8	1.22	0.092
21.44	-1.4	1.21	0.091
21.445	-1.4	1.20	0.098
21.45	-1.3	1.18	0.100
21.455	-1.4	1.17	0.093
21.46	-1.1	1.16	0.086
21.465	-1.2	1.15	0.067
21.47	-1.2	1.14	0.074
21.475	-1.2	1.13	0.094
21.48	-1.2	1.11	0.063
21.485	-1.4	1.10	0.036
21.49	-1.3	1.09	0.068
21.495	-1.4	1.08	0.061
21.5	-1.6	1.06	0.042
21.505	-1.7	1.05	0.034
21.51	-1.7	1.04	0.018
21.515	-1.9	1.02	0.016
21.52	-2.1	1.01	0.010
21.525	-2.0	0.99	0.026
21.53	-2.2	0.97	0.041
21.535	-2.5	0.96	0.022
21.54	-2.5	0.94	0.028
21.545	-2.4	0.92	0.040
21.55	-2.8	0.90	0.031
21.555	-2.9	0.89	0.014
21.56	-2.9	0.87	0.011
21.565	-3.2	0.85	0.033
21.57	-3.3	0.83	0.054
21.575	-3.2	0.81	0.075
21.58	-3.4	0.78	0.143
21.585	-3.5	0.76	0.304
21.59	-3.6	0.74	0.471
21.595	-3.6	0.72	0.558
21.6	-3.8	0.70	0.504
21.605	-3.7	0.68	0.285
21.61	-3.7	0.65	0.019
21.615	-3.7	0.63	-0.094
21.62	-3.9	0.61	-0.052
21.625	-3.9	0.59	0.019
21.63	-3.8	0.56	0.098
21.635	-4.0	0.54	0.149
21.64	-3.9	0.52	0.138
21.645	-3.9	0.50	0.113
21.65	-4.0	0.47	0.109
21.655	-4.1	0.45	0.084
21.66	-4.0	0.43	0.083
21.665	-3.9	0.41	0.093
21.67	-4.1	0.39	0.068
21.675	-4.1	0.36	0.042
21.68	-4.2	0.34	0.051
21.685	-4.3	0.32	0.072
21.69	-4.4	0.29	0.088
21.695	-4.4	0.27	0.099
21.7	-4.6	0.25	0.090
21.705	-4.7	0.22	0.072
21.71	-4.6	0.20	0.106
21.715	-4.8	0.17	0.131
21.72	-4.8	0.15	0.111
21.725	-4.7	0.12	0.098
21.73	-4.8	0.10	0.127
21.735	-4.9	0.07	0.116
21.74	-5.0	0.05	0.118
21.745	-4.9	0.02	0.119
21.75	-4.9	-0.00	0.099
21.755	-4.9	-0.03	0.119
21.76	-4.5	-0.05	0.133
21.765	-4.3	-0.07	0.135
21.77	-4.1	-0.09	0.138
21.775	-3.8	-0.11	0.131
21.78	-3.5	-0.12	0.121
21.785	-3.3	-0.14	0.144
21.79	-2.9	-0.15	0.145
21.795	-2.4	-0.17	0.141
21.8	-1.8	-0.17	0.174
21.805	-0.5	-0.18	0.168
21.81	1.3	-0.17	0.174
21.815	3.9	-0.15	0.201
21.82	7.1	-0.11	0.196
21.825	11.1	-0.06	0.190
21.83	15.3	0.02	0.198
21.835	19.7	0.12	0.218
21.84	24.2	0.24	0.258
21.845	28.5	0.38	0.254
21.85	32.3	0.54	0.282
21.855	35.6	0.72	0.303
21.86	38.5	0.91	0.304
21.865	40.8	1.10	0.343
21.87	42.3	1.31	0.361
21.875	43.3	1.52	0.369
21.88	43.6	1.73	0.385
21.885	43.1	1.94	0.365
21.89	42.1	2.14	0.340
21.895	40.4	2.33	0.297
21.9	37.8	2.51	0.277
21.905	34.7	2.67	0.268
21.91	31.6	2.81	0.239
21.915	28.0	2.94	0.216
21.92	24.2	3.04	0.171
21.925	20.4	3.13	0.149
21.93	16.5	3.20	0.121
21.935	12.8	3.25	0.059
21.94	9.1	3.28	0.050
21.945	5.7	3.29	0.047
21.95	2.4	3.28	0.052
21.955	-0.5	3.27	0.051
21.96	-2.8	3.23	0.033
21.965	-4.9	3.19	0.038
21.97	-6.6	3.15	0.040
21.975	-7.7	3.09	0.033
21.98	-8.5	3.03	0.026
21.985	-9.0	2.97	0.031
21.99	-9.0	2.91	0.025
21.995	-8.6	2.86	0.007
22	-8.0	2.80	0.020
22.005	-7.3	2.75	0.051
22.01	-6.1	2.71	0.026
22.015	-5.1	2.67	0.029
22.02	-4.1	2.63	0.051
22.025	-3.3	2.61	0.059
22.03	-2.6	2.58	0.018
22.035	-2.3	2.56	0.004
22.04	-2.1	2.53	0.018
22.045	-1.9	2.51	0.036
22.05	-1.8	2.49	0.039
22.055	-1.5	2.47	0.054
22.06	-0.8	2.45	0.047
22.065	-0.1	2.44	0.048
22.07	0.8	2.43	0.076
22.075	2.0	2.43	0.069
22.08	3.1	2.43	0.059
22.085	4.1	2.44	0.052
22.09	5.3	2.46	0.036
22.095	6.2	2.47	0.026
22.1	7.0	2.50	0.031
22.105	7.8	2.52	0.035
22.11	8.5	2.55	0.036
22.115	9.0	2.59	0.051
22.12	9.3	2.62	0.055
22.125	9.7	2.66	0.042
22.13	9.8	2.69	0.023
22.135	9.8	2.73	0.024
22.14	9.7	2.76	0.040
22.145	9.5	2.80	0.038
22.15	9.0	2.83	0.021
22.155	8.4	2.85	0.043
22.16	7.8	2.88	0.063
22.165	6.8	2.90	0.061
22.17	5.9	2.91	0.043
22.175	4.8	2.92	0.033
22.18	3.7	2.93	0.031
22.185	2.4	2.92	0.043
22.19	1.2	2.92	0.043
22.195	0.0	2.90	0.069
22.2	-1.3	2.88	0.072
22.205	-2.5	2.85	0.025
22.21	-3.6	2.82	0.004
22.215	-4.8	2.78	0.017
22.22	-5.8	2.74	0.061
22.225	-6.7	2.69	0.074
22.23	-7.5	2.64	0.038
22.235	-8.4	2.59	0.029
22.24	-8.9	2.53	0.043
22.245	-9.3	2.47	0.041
22.25	-9.8	2.41	0.041
22.255	-10.1	2.35	0.060
22.26	-10.2	2.28	0.054
22.265	-10.3	2.22	0.074
22.27	-10.3	2.16	0.064
22.275	-10.1	2.10	0.058
22.28	-9.9	2.04	0.066
22.285	-9.7	1.98	0.054
22.29	-9.3	1.92	0.049
22.295	-8.8	1.87	0.040
22.3	-8.4	1.82	0.048
22.305	-7.9	1.77	0.051
22.31	-7.2	1.72	0.011
22.315	-6.7	1.68	0.044
22.32	-6.2	1.64	0.080
22.325	-5.6	1.61	0.039
22.33	-5.0	1.57	0.035
22.335	-4.7	1.54	0.070
22.34	-4.2	1.51	0.068
22.345	-3.7	1.49	0.053
22.35	-3.4	1.46	0.059
22.355	-3.0	1.44	0.089
22.36	-2.7	1.42	0.086
22.365	-2.5	1.40	0.087
22.37	-2.3	1.38	0.084
22.375	-2.1	1.36	0.079
22.38	-2.0	1.35	0.057
22.385	-2.0	1.33	0.071
22.39	-1.9	1.31	0.106
22.395	-2.0	1.30	0.106
22.4	-2.0	1.28	0.096
22.405	-2.1	1.27	0.100
22.41	-2.0	1.25	0.084
22.415	-2.2	1.23	0.084
22.42	-2.3	1.21	0.079
22.425	-2.3	1.20	0.098
22.43	-2.4	1.18	0.100
22.435	-2.5	1.16	0.086
22.44	-2.6	1.14	0.086
22.445	-2.6	1.12	0.033
22.45	-2.8	1.10	-0.002
22.455	-2.9	1.08	0.012
22.46	-2.9	1.06	0.020
22.465	-3.0	1.04	0.016
22.47	-3.3	1.02	0.028
22.475	-3.3	1.00	0.044
22.48	-3.4	0.98	0.026
22.485	-3.6	0.96	0.024
22.49	-3.6	0.93	0.045
22.495	-3.7	0.91	0.065
22.5	-3.9	0.89	0.046
22.505	-4.0	0.86	0.017
22.51	-4.0	0.84	0.027
22.515	-4.2	0.81	0.036
22.52	-4.3	0.79	0.037
22.525	-4.3	0.76	0.048
22.53	-4.3	0.74	0.056
22.535	-4.4	0.71	0.062
22.54	-4.4	0.68	0.108
22.545	-4.5	0.66	0.242
22.55	-4.6	0.63	0.423
22.555	-4.7	0.60	0.555
22.56	-4.6	0.58	0.563
22.565	-4.7	0.55	0.422
22.57	-4.9	0.53	0.154
22.575	-4.8	0.50	-0.079
22.58	-4.8	0.47	-0.108
22.585	-4.9	0.45	-0.040
22.59	-4.8	0.42	0.066
22.595	-4.7	0.39	0.133
22.6	-4.7	0.37	0.139
22.605	-4.8	0.34	0.141
22.61	-4.6	0.32	0.131
22.615	-4.7	0.29	0.087
22.62	-4.7	0.27	0.089
22.625	-4.5	0.24	0.121
22.63	-4.5	0.22	0.099
22.635	-4.5	0.20	0.090
22.64	-4.4	0.17	0.113
22.645	-4.3	0.15	0.077
22.65	-4.6	0.13	0.076
22.655	-4.8	0.10	0.092
22.66	-4.8	0.08	0.078
22.665	-4.9	0.05	0.088
22.67	-5.0	0.03	0.094
22.675	-4.9	0.00	0.092
22.68	-4.9	-0.02	0.083
22.685	-5.0	-0.05	0.096
22.69	-5.1	-0.07	0.111
22.695	-5.2	-0.10	0.109
22.7	-5.5	-0.12	0.121
22.705	-5.7	-0.15	0.146
22.71	-5.6	-0.18	0.143
22.715	-5.7	-0.21	0.141
22.72	-5.8	-0.23	0.109
22.725	-5.6	-0.26	0.113
22.73	-5.4	-0.29	0.117
22.735	-5.3	-0.31	0.144
22.74	-4.9	-0.33	0.158
22.745	-4.6	-0.36	0.165
22.75	-4.4	-0.38	0.176
22.755	-4.1	-0.40	0.188
22.76	-3.6	-0.41	0.196
22.765	-3.0	-0.42	0.204
22.77	-2.1	-0.43	0.214
22.775	-0.4	-0.43	0.220
22.78	1.7	-0.42	0.221
22.785	4.4	-0.40	0.258
22.79	7.9	-0.36	0.253
22.795	11.9	-0.30	0.271
22.8	16.1	-0.21	0.306
22.805	20.4	-0.11	0.317
22.81	24.7	0.01	0.344
22.815	28.6	0.16	0.347
22.82	32.1	0.32	0.350
22.825	35.1	0.49	0.372
22.83	37.5	0.68	0.349
22.835	39.3	0.87	0.379
22.84	40.6	1.07	0.406
22.845	41.2	1.27	0.364
22.85	40.9	1.47	0.351
22.855	40.3	1.66	0.357
22.86	39.0	1.85	0.347
22.865	37.0	2.02	0.313
22.87	34.5	2.18	0.293
22.875	31.6	2.33	0.264
22.88	28.3	2.46	0.207
22.885	24.7	2.57	0.153
22.89	21.1	2.67	0.144
22.895	17.4	2.74	0.133
22.9	13.5	2.79	0.126
22.905	9.9	2.83	0.096
22.91	6.4	2.85	0.071
22.915	3.0	2.85	0.062
22.92	-0.1	2.83	0.063
22.925	-2.8	2.81	0.051
22.93	-5.2	2.77	0.052
22.935	-7.3	2.72	0.046
22.94	-8.8	2.66	0.048
22.945	-10.0	2.59	0.058
22.95	-11.0	2.53	0.048
22.955	-11.5	2.46	0.045
22.96	-11.4	2.39	0.047
22.965	-11.3	2.32	0.096
22.97	-10.8	2.25	0.073
22.975	-10.0	2.19	0.062
22.98	-9.2	2.13	0.079
22.985	-8.5	2.08	0.068
22.99	-7.8	2.03	0.054
22.995	-7.2	1.99	0.048
23	-6.8	1.94	0.078
23.005	-6.4	1.90	0.092
23.01	-5.9	1.86	0.087
23.015	-5.4	1.82	0.079
23.02	-4.5	1.79	0.071
23.025	-3.4	1.77	0.102
23.03	-2.1	1.75	0.086
23.035	-0.7	1.74	0.062
23.04	1.0	1.73	0.102
23.045	2.7	1.74	0.089
23.05	4.3	1.75	0.088
23.055	5.9	1.77	0.084
23.06	7.4	1.80	0.074
23.065	8.7	1.83	0.075
23.07	9.7	1.87	0.068
23.075	10.8	1.92	0.080
23.08	11.6	1.97	0.084
23.085	12.1	2.02	0.079
23.09	12.6	2.07	0.080
23.095	12.9	2.12	0.081
23.1	12.8	2.18	0.072
23.105	12.7	2.23	0.094
23.11	12.4	2.28	0.089
23.115	11.8	2.33	0.084
23.12	11.0	2.37	0.072
23.125	10.1	2.41	0.057
23.13	9.0	2.44	0.048
23.135	7.7	2.47	0.067
23.14	6.4	2.49	0.055
23.145	5.0	2.50	0.049
23.15	3.3	2.51	0.074
23.155	1.8	2.50	0.074
23.16	0.3	2.49	0.059
23.165	-1.2	2.47	0.073
23.17	-2.8	2.45	0.068
23.175	-4.1	2.41	0.047
23.18	-5.4	2.38	0.059
23.185	-6.7	2.33	0.070
23.19	-7.7	2.28	0.066
23.195	-8.6	2.23	0.072
23.2	-9.5	2.17	0.065
23.205	-10.0	2.11	0.047
23.21	-10.5	2.04	0.067
23.215	-10.8	1.98	0.086
23.22	-11.1	1.91	0.094
23.225	-11.1	1.85	0.087
23.23	-11.1	1.78	0.072
23.235	-11.0	1.72	0.058
23.24	-10.7	1.66	0.080
23.245	-10.3	1.60	0.068
23.25	-10.0	1.54	0.068
23.255	-9.5	1.48	0.060
23.26	-8.9	1.43	0.067
23.265	-8.4	1.38	0.070
23.27	-7.9	1.34	0.068
23.275	-7.2	1.30	0.049
23.28	-6.6	1.26	0.044
23.285	-6.1	1.22	0.049
23.29	-5.4	1.19	0.059
23.295	-4.8	1.16	0.081
23.3	-4.4	1.13	0.123
23.305	-3.9	1.10	0.130
23.31	-3.4	1.08	0.092
23.315	-3.0	1.06	0.092
23.32	-2.7	1.04	0.110
23.325	-2.3	1.03	0.101
23.33	-2.1	1.01	0.110
23.335	-2.0	0.99	0.099
23.34	-1.8	0.98	0.114
23.345	-1.6	0.97	0.113
23.35	-1.6	0.96	0.116
23.355	-1.5	0.94	0.111
23.36	-1.4	0.93	0.086
23.365	-1.5	0.92	0.098
23.37	-1.6	0.91	0.098
23.375	-1.6	0.89	0.080
23.38	-1.6	0.88	0.061
23.385	-1.8	0.87	0.052
23.39	-1.8	0.85	0.056
23.395	-1.9	0.84	0.067
23.4	-2.0	0.83	0.062
23.405	-2.1	0.81	0.068
23.41	-2.1	0.80	0.065
23.415	-2.2	0.78	0.082
23.42	-2.4	0.77	0.065
23.425	-2.4	0.75	0.058
23.43	-2.5	0.74	0.082
23.435	-2.7	0.72	0.071
23.44	-2.7	0.70	0.064
23.445	-2.8	0.68	0.056
23.45	-3.0	0.67	0.048
23.455	-3.0	0.65	0.068
23.46	-3.0	0.63	0.081
23.465	-3.2	0.61	0.077
23.47	-3.3	0.59	0.101
23.475	-3.3	0.57	0.171
23.48	-3.4	0.55	0.344
23.485	-3.5	0.53	0.509
23.49	-3.5	0.51	0.526
23.495	-3.5	0.49	0.428
23.5	-3.6	0.47	0.229
23.505	-3.6	0.45	-0.017
23.51	-3.6	0.43	-0.151
23.515	-3.7	0.41	-0.110
23.52	-3.7	0.39	-0.011
23.525	-3.7	0.37	0.071
23.53	-3.7	0.35	0.124
23.535	-3.9	0.33	0.123
23.54	-3.9	0.30	0.101
23.545	-3.9	0.28	0.125
23.55	-4.0	0.26	0.141
23.555	-4.1	0.24	0.111
23.56	-4.1	0.22	0.097
23.565	-4.2	0.20	0.101
23.57	-4.3	0.17	0.108
23.575	-4.3	0.15	0.104
23.58	-4.4	0.13	0.096
23.585	-4.7	0.11	0.110
23.59	-4.8	0.08	0.116
23.595	-4.9	0.06	0.088
23.6	-5.2	0.03	0.086
23.605	-5.3	0.00	0.101
23.61	-5.2	-0.02	0.114
23.615	-5.4	-0.05	0.121
23.62	-5.6	-0.08	0.117
23.625	-5.6	-0.11	0.117
23.63	-5.7	-0.13	0.111
23.635	-5.9	-0.16	0.133
23.64	-5.8	-0.19	0.156
23.645	-5.7	-0.22	0.164
23.65	-5.8	-0.25	0.168
23.655	-5.7	-0.27	0.181
23.66	-5.3	-0.30	0.149
23.665	-5.2	-0.32	0.158
23.67	-4.9	-0.35	0.169
23.675	-4.5	-0.37	0.177
23.68	-4.3	-0.39	0.181
23.685	-4.2	-0.41	0.169
23.69	-3.8	-0.42	0.186
23.695	-3.5	-0.44	0.202
23.7	-3.0	-0.45	0.194
23.705	-2.1	-0.46	0.201
23.71	-0.7	-0.46	0.217
23.715	1.2	-0.45	0.208
23.72	3.8	-0.43	0.241
23.725	7.2	-0.39	0.286
23.73	11.1	-0.34	0.294
23.735	15.2	-0.26	0.296
23.74	19.7	-0.16	0.309
23.745	24.0	-0.04	0.357
23.75	28.0	0.10	0.366
23.755	31.7	0.26	0.359
23.76	34.9	0.43	0.348
23.765	37.5	0.62	0.373
23.77	39.6	0.81	0.367
23.775	41.1	1.02	0.346
23.78	41.7	1.22	0.381
23.785	41.8	1.42	0.377
23.79	41.3	1.62	0.351
23.795	40.1	1.81	0.321
23.8	38.2	2.00	0.278
23.805	35.8	2.17	0.255
23.81	33.0	2.32	0.208
23.815	29.7	2.46	0.131
23.82	26.1	2.57	0.122
23.825	22.6	2.67	0.121
23.83	18.7	2.76	0.101
23.835	14.8	2.82	0.081
23.84	11.0	2.86	0.076
23.845	7.4	2.88	0.064
23.85	3.8	2.88	0.039
23.855	0.7	2.87	0.052
23.86	-2.1	2.85	0.042
23.865	-4.8	2.81	0.026
23.87	-7.0	2.76	0.038
23.875	-8.8	2.70	0.023
23.88	-10.3	2.64	0.024
23.885	-11.4	2.57	0.034
23.89	-11.9	2.50	0.032
23.895	-12.0	2.42	0.020
23.9	-12.0	2.35	0.006
23.905	-11.6	2.28	0.053
23.91	-10.9	2.22	0.051
23.915	-10.4	2.15	0.046
23.92	-9.7	2.09	0.026
23.925	-9.1	2.04	0.027
23.93	-8.6	1.98	0.025
23.935	-8.3	1.93	0.046
23.94	-7.9	1.88	0.091
23.945	-7.5	1.84	0.071
23.95	-7.0	1.79	0.050
23.955	-6.0	1.75	0.041
23.96	-4.7	1.72	0.050
23.965	-3.4	1.70	0.054
23.97	-1.8	1.68	0.059
23.975	0.0	1.67	0.068
23.98	1.8	1.67	0.054
23.985	3.6	1.68	0.019
23.99	5.4	1.70	0.020
23.995	7.1	1.73	0.054
24	8.5	1.76	0.064
24.005	9.9	1.80	0.054
24.01	11.2	1.85	0.039
24.015	12.0	1.90	0.036
24.02	12.7	1.95	0.019
24.025	13.4	2.01	0.038
24.03	13.8	2.07	0.044
24.035	13.9	2.13	0.055
24.04	13.9	2.19	0.024
24.045	13.6	2.24	0.038
24.05	13.0	2.30	0.044
24.055	12.3	2.35	0.046
24.06	11.4	2.39	0.071
24.065	10.2	2.43	0.044
24.07	8.8	2.46	0.039
24.075	7.5	2.49	0.038
24.08	5.8	2.51	0.051
24.085	4.0	2.51	0.070
24.09	2.4	2.51	0.048
24.095	0.7	2.50	0.038
24.1	-1.1	2.49	0.027
24.105	-2.7	2.46	0.039
24.11	-4.1	2.43	0.053
24.115	-5.6	2.39	0.038
24.12	-6.9	2.34	0.036
24.125	-8.0	2.29	0.038
24.13	-9.1	2.23	0.045
24.135	-10.0	2.17	0.045
24.14	-10.6	2.11	0.020
24.145	-11.1	2.04	0.015
24.15	-11.5	1.97	0.041
24.155	-11.7	1.91	0.039
24.16	-11.7	1.84	0.036
24.165	-11.7	1.77	0.044
24.17	-11.6	1.70	0.017
24.175	-11.2	1.64	0.041
24.18	-10.9	1.58	0.071
24.185	-10.5	1.52	0.072
24.19	-9.9	1.46	0.049
24.195	-9.3	1.40	0.046
24.2	-8.9	1.35	0.052
24.205	-8.2	1.31	0.031
24.21	-7.5	1.26	0.028
24.215	-6.9	1.22	0.048
24.22	-6.3	1.18	0.051
24.225	-5.6	1.15	0.029
24.23	-5.1	1.12	0.040
24.235	-4.5	1.09	0.049
24.24	-3.9	1.06	0.034
24.245	-3.4	1.04	0.026
24.25	-3.0	1.02	0.036
24.255	-2.6	1.00	0.063
24.26	-2.2	0.99	0.107
24.265	-2.0	0.97	0.120
24.27	-1.8	0.96	0.098
24.275	-1.5	0.95	0.085
24.28	-1.4	0.93	0.071
24.285	-1.3	0.92	0.070
24.29	-1.2	0.91	0.109
24.295	-1.1	0.90	0.107
24.3	-1.1	0.89	0.086
24.305	-1.1	0.88	0.089
24.31	-1.0	0.87	0.117
24.315	-1.1	0.86	0.101
24.32	-1.1	0.85	0.109
24.325	-1.1	0.84	0.096
24.33	-1.2	0.83	0.080
24.335	-1.4	0.82	0.076
24.34	-1.4	0.81	0.078
24.345	-1.5	0.80	0.082
24.35	-1.7	0.79	0.059
24.355	-1.7	0.78	0.045
24.36	-1.7	0.76	0.048
24.365	-1.9	0.75	0.059
24.37	-2.1	0.74	0.035
24.375	-2.1	0.72	0.026
24.38	-2.2	0.71	0.051
24.385	-2.4	0.69	0.076
24.39	-2.4	0.68	0.071
24.395	-2.5	0.66	0.028
24.4	-2.8	0.64	0.013
24.405	-2.9	0.62	0.037
24.41	-2.9	0.61	0.041
24.415	-3.1	0.59	0.040
24.42	-3.3	0.57	0.047
24.425	-3.4	0.55	0.078
24.43	-3.5	0.53	0.156
24.435	-3.7	0.51	0.347
24.44	-3.8	0.49	0.541
24.445	-3.8	0.47	0.598
24.45	-4.0	0.44	0.506
24.455	-4.0	0.42	0.291
24.46	-4.0	0.40	0.029
24.465	-4.1	0.38	-0.082
24.47	-4.1	0.35	-0.039
24.475	-4.0	0.33	0.059
24.48	-4.1	0.31	0.127
24.485	-4.2	0.29	0.134
24.49	-4.1	0.27	0.150
24.495	-4.1	0.24	0.124
24.5	-4.2	0.22	0.083
24.505	-4.2	0.20	0.098
24.51	-4.1	0.18	0.087
24.515	-4.2	0.16	0.116
24.52	-4.2	0.13	0.112
24.525	-4.1	0.11	0.088
24.53	-4.1	0.09	0.101
24.535	-4.3	0.07	0.114
24.54	-4.3	0.05	0.114
24.545	-4.4	0.03	0.121
24.55	-4.6	0.00	0.106
24.555	-4.6	-0.02	0.090
24.56	-4.5	-0.04	0.122
24.565	-4.6	-0.07	0.124
24.57	-4.7	-0.09	0.120
24.575	-4.7	-0.11	0.124
24.58	-4.9	-0.14	0.123
24.585	-5.1	-0.16	0.113
24.59	-5.2	-0.19	0.084
24.595	-5.2	-0.21	0.120
24.6	-5.3	-0.24	0.144
24.605	-5.1	-0.26	0.139
24.61	-4.8	-0.28	0.118
24.615	-4.6	-0.31	0.131
24.62	-4.3	-0.33	0.141
24.625	-3.9	-0.34	0.141
24.63	-3.6	-0.36	0.141
24.635	-3.3	-0.37	0.153
24.64	-2.8	-0.39	0.164
24.645	-2.2	-0.40	0.194
24.65	-1.4	-0.40	0.184
24.655	0.1	-0.40	0.163
24.66	2.4	-0.38	0.193
24.665	5.4	-0.35	0.204
24.67	9.2	-0.31	0.214
24.675	13.8	-0.24	0.239
24.68	18.6	-0.14	0.239
24.685	23.4	-0.02	0.254
24.69	28.4	0.12	0.283
24.695	32.9	0.28	0.281
24.7	36.9	0.46	0.277
24.705	40.4	0.66	0.307
24.71	43.5	0.88	0.352
24.715	45.6	1.10	0.361
24.72	47.1	1.33	0.369
24.725	48.1	1.57	0.352
24.73	48.0	1.80	0.336
24.735	47.3	2.03	0.336
24.74	45.8	2.24	0.321
24.745	43.5	2.45	0.308
24.75	40.5	2.64	0.290
24.755	37.3	2.81	0.287
24.76	33.7	2.97	0.274
24.765	29.6	3.10	0.222
24.77	25.4	3.21	0.179
24.775	21.3	3.30	0.176
24.78	17.0	3.37	0.138
24.785	12.9	3.42	0.096
24.79	9.0	3.45	0.075
24.795	5.3	3.46	0.071
24.8	1.8	3.45	0.080
24.805	-1.2	3.43	0.077
24.81	-3.9	3.39	0.047
24.815	-6.2	3.34	0.031
24.82	-8.0	3.28	0.029
24.825	-9.2	3.22	0.024
24.83	-10.1	3.16	0.014
24.835	-10.5	3.09	0.036
24.84	-10.4	3.02	0.052
24.845	-9.9	2.96	0.053
24.85	-9.3	2.89	0.029
24.855	-8.2	2.84	0.044
24.86	-6.9	2.79	0.048
24.865	-5.7	2.75	0.034
24.87	-4.5	2.71	0.048
24.875	-3.4	2.68	0.073
24.88	-2.5	2.66	0.056
24.885	-2.0	2.63	0.059
24.89	-1.7	2.61	0.049
24.895	-1.4	2.59	0.056
24.9	-1.2	2.57	0.044
24.905	-0.7	2.55	0.051
24.91	0.2	2.54	0.024
24.915	1.1	2.54	0.037
24.92	2.1	2.53	0.059
24.925	3.4	2.54	0.043
24.93	4.6	2.55	0.038
24.935	5.7	2.56	0.039
24.94	6.9	2.59	0.026
24.945	7.9	2.61	0.026
24.95	8.7	2.64	0.028
24.955	9.5	2.68	0.006
24.96	10.2	2.72	0.016
24.965	10.6	2.76	0.051
24.97	11.0	2.80	0.044
24.975	11.3	2.84	0.049
24.98	11.4	2.88	0.038
24.985	11.2	2.92	0.044
24.99	11.1	2.96	0.075
24.995	10.8	3.00	0.042
25	10.1	3.04	0.032
25.005	9.4	3.07	0.037
25.01	8.6	3.10	0.044
25.015	7.6	3.12	0.072
25.02	6.4	3.14	0.069
25.025	5.3	3.15	0.040
25.03	3.9	3.15	0.016
25.035	2.5	3.15	0.019
25.04	1.2	3.14	0.014
25.045	-0.2	3.12	0.034
25.05	-1.7	3.10	0.064
25.055	-3.0	3.07	0.046
25.06	-4.2	3.03	0.050
25.065	-5.5	2.99	0.064
25.07	-6.6	2.94	0.046
25.075	-7.5	2.89	0.028
25.08	-8.4	2.83	0.048
25.085	-9.2	2.77	0.046
25.09	-9.7	2.71	0.047
25.095	-10.2	2.65	0.041
25.1	-10.7	2.58	0.041
25.105	-10.9	2.51	0.057
25.11	-10.9	2.44	0.056
25.115	-10.9	2.38	0.052
25.12	-10.8	2.31	0.036
25.125	-10.5	2.25	0.031
25.13	-10.2	2.18	0.041
25.135	-10.0	2.12	0.077
25.14	-9.5	2.07	0.040
25.145	-9.0	2.01	0.021
25.15	-8.6	1.96	0.043
25.155	-8.1	1.91	0.052
25.16	-7.4	1.86	0.071
25.165	-6.9	1.82	0.064
25.17	-6.5	1.78	0.046
25.175	-5.7	1.74	0.037
25.18	-5.3	1.70	0.037
25.185	-4.9	1.67	0.047
25.19	-4.3	1.64	0.033
25.195	-3.8	1.61	0.032
25.2	-3.4	1.59	0.037
25.205	-3.0	1.56	0.031
25.21	-2.5	1.54	0.042
25.215	-2.3	1.53	0.043
25.22	-2.0	1.51	0.076
25.225	-1.6	1.49	0.094
25.23	-1.4	1.48	0.096
25.235	-1.4	1.46	0.077
25.24	-1.2	1.45	0.093
25.245	-1.1	1.44	0.108
25.25	-1.1	1.43	0.094
25.255	-1.1	1.41	0.084
25.26	-1.0	1.40	0.092
25.265	-1.1	1.39	0.084
25.27	-1.2	1.38	0.088
25.275	-1.2	1.36	0.114
25.28	-1.4	1.35	0.131
25.285	-1.6	1.33	0.109
25.29	-1.7	1.32	0.099
25.295	-1.8	1.30	0.079
25.3	-2.0	1.29	0.082
25.305	-2.2	1.27	0.074
25.31	-2.2	1.25	0.051
25.315	-2.4	1.23	0.045
25.32	-2.6	1.22	0.056
25.325	-2.5	1.20	0.089
25.33	-2.7	1.18	0.056
25.335	-2.9	1.16	0.060
25.34	-3.0	1.14	0.062
25.345	-3.1	1.12	0.056
25.35	-3.3	1.09	0.064
25.355	-3.4	1.07	0.048
25.36	-3.5	1.05	0.037
25.365	-3.7	1.02	0.046
25.37	-3.8	1.00	0.069
25.375	-3.9	0.98	0.083
25.38	-4.0	0.95	0.055
25.385	-4.2	0.92	0.044
25.39	-4.2	0.90	0.049
25.395	-4.3	0.87	0.072
25.4	-4.5	0.85	0.103
25.405	-4.6	0.82	0.194
25.41	-4.6	0.79	0.376
25.415	-4.7	0.76	0.579
25.42	-4.8	0.74	0.616
25.425	-4.7	0.71	0.469
25.43	-4.9	0.68	0.218
25.435	-5.0	0.65	-0.045
25.44	-4.9	0.63	-0.121
25.445	-4.9	0.60	-0.071
25.45	-5.0	0.57	0.048
25.455	-4.9	0.54	0.121
25.46	-4.8	0.52	0.144
25.465	-4.9	0.49	0.160
25.47	-4.9	0.46	0.120
25.475	-4.8	0.44	0.092
25.48	-4.8	0.41	0.116
25.485	-4.8	0.38	0.111
25.49	-4.7	0.36	0.089
25.495	-4.6	0.33	0.091
25.5	-4.7	0.31	0.101
25.505	-4.7	0.28	0.078
25.51	-4.7	0.26	0.072
25.515	-4.9	0.23	0.097
25.52	-5.0	0.21	0.091
25.525	-4.9	0.18	0.091
25.53	-4.9	0.15	0.094
25.535	-5.0	0.13	0.116
25.54	-4.9	0.10	0.125
25.545	-4.9	0.08	0.128
25.55	-5.1	0.05	0.129
25.555	-5.2	0.03	0.124
25.56	-5.2	0.00	0.125
25.565	-5.4	-0.03	0.137
25.57	-5.4	-0.05	0.151
25.575	-5.2	-0.08	0.141
25.58	-5.1	-0.10	0.133
25.585	-5.0	-0.13	0.151
25.59	-4.6	-0.15	0.168
25.595	-4.4	-0.17	0.163
25.6	-4.2	-0.19	0.164
25.605	-3.9	-0.21	0.160
25.61	-3.5	-0.23	0.157
25.615	-3.2	-0.24	0.174
25.62	-2.8	-0.25	0.178
25.625	-1.8	-0.26	0.184
25.63	-0.3	-0.26	0.193
25.635	1.8	-0.25	0.200
25.64	4.9	-0.23	0.214
25.645	8.7	-0.18	0.204
25.65	12.9	-0.12	0.232
25.655	17.7	-0.03	0.238
25.66	22.7	0.09	0.246
25.665	27.5	0.22	0.258
25.67	32.0	0.38	0.293
25.675	36.2	0.56	0.296
25.68	39.7	0.76	0.332
25.685	42.5	0.97	0.357
25.69	44.8	1.19	0.371
25.695	46.2	1.41	0.363
25.7	46.8	1.64	0.344
25.705	46.7	1.86	0.353
25.71	46.1	2.08	0.375
25.715	44.4	2.30	0.361
25.72	42.0	2.49	0.323
25.725	39.3	2.68	0.287
25.73	35.9	2.85	0.249
25.735	32.0	2.99	0.219
25.74	28.0	3.12	0.173
25.745	23.9	3.22	0.159
25.75	19.6	3.30	0.131
25.755	15.6	3.36	0.109
25.76	11.6	3.40	0.071
25.765	7.6	3.43	0.034
25.77	3.9	3.43	0.039
25.775	0.3	3.41	0.046
25.78	-3.2	3.38	0.041
25.785	-5.6	3.33	0.023
25.79	-7.4	3.28	0.040
25.795	-8.8	3.22	0.039
25.8	-10.1	3.15	-0.001
25.805	-10.8	3.08	0.001
25.81	-11.1	3.01	0.024
25.815	-11.0	2.94	0.019
25.82	-10.6	2.88	0.002
25.825	-9.7	2.81	0.009
25.83	-8.8	2.75	0.020
25.835	-7.7	2.70	0.021
25.84	-6.4	2.66	0.033
25.845	-5.4	2.62	0.034
25.85	-4.6	2.58	0.046
25.855	-4.0	2.55	0.031
25.86	-3.6	2.52	0.047
25.865	-3.5	2.49	0.040
25.87	-3.4	2.46	0.041
25.875	-2.9	2.43	0.061
25.88	-2.3	2.41	0.081
25.885	-1.5	2.39	0.037
25.89	-0.4	2.37	0.016
25.895	0.9	2.37	0.024
25.9	2.1	2.37	0.012
25.905	3.5	2.37	0.022
25.91	4.9	2.38	0.013
25.915	6.1	2.40	0.000
25.92	7.2	2.43	0.018
25.925	8.3	2.46	0.026
25.93	8.8	2.49	0.020
25.935	9.7	2.52	0.034
25.94	10.3	2.56	0.028
25.945	10.8	2.60	0.034
25.95	10.9	2.64	0.054
25.955	11.0	2.69	0.031
25.96	11.0	2.73	-0.016
25.965	10.7	2.77	0.036
25.97	10.2	2.81	0.071
25.975	9.6	2.84	0.038
25.98	8.8	2.87	0.022
25.985	7.7	2.89	0.026
25.99	6.7	2.91	0.027
25.995	5.5	2.93	0.024
26	4.1	2.93	0.024
26.005	2.7	2.93	0.007
26.01	1.3	2.92	0.021
26.015	-0.2	2.91	0.046
26.02	-1.7	2.88	0.014
26.025	-3.0	2.85	0.017
26.03	-4.4	2.82	0.032
26.035	-5.8	2.77	0.031
26.04	-6.9	2.73	0.070
26.045	-7.9	2.67	0.077
26.05	-9.0	2.62	0.046
26.055	-9.8	2.55	0.047
26.06	-10.4	2.49	0.051
26.065	-11.0	2.42	0.038
26.07	-11.5	2.35	0.036
26.075	-11.6	2.28	0.030
26.08	-11.8	2.21	0.011
26.085	-11.9	2.14	0.026
26.09	-11.7	2.07	0.036
26.095	-11.5	2.00	0.025
26.1	-11.4	1.94	0.016
26.105	-11.0	1.87	0.047
26.11	-10.5	1.81	0.029
26.115	-10.1	1.75	0.033
26.12	-9.5	1.69	0.028
26.125	-8.9	1.64	0.015
26.13	-8.3	1.59	0.038
26.135	-7.8	1.55	0.044
26.14	-7.1	1.50	0.024
26.145	-6.5	1.46	0.029
26.15	-6.0	1.42	0.031
26.155	-5.4	1.39	0.038
26.16	-4.8	1.36	0.010
26.165	-4.4	1.33	0.016
26.17	-3.9	1.30	0.013
26.175	-3.4	1.28	0.040
26.18	-3.0	1.26	0.067
26.185	-2.7	1.24	0.046
26.19	-2.4	1.22	0.061
26.195	-2.1	1.21	0.092
26.2	-2.0	1.19	0.071
26.205	-1.8	1.18	0.080
26.21	-1.6	1.16	0.080
26.215	-1.6	1.15	0.084
26.22	-1.6	1.13	0.097
26.225	-1.6	1.12	0.113
26.23	-1.6	1.11	0.105
26.235	-1.8	1.09	0.089
26.24	-1.7	1.08	0.089
26.245	-1.8	1.06	0.085
26.25	-2.1	1.05	0.065
26.255	-2.1	1.03	0.059
26.26	-2.2	1.02	0.051
26.265	-2.4	1.00	0.059
26.27	-2.6	0.98	0.072
26.275	-2.6	0.96	0.054
26.28	-2.8	0.94	0.043
26.285	-3.0	0.92	0.066
26.29	-3.0	0.90	0.052
26.295	-3.1	0.88	0.034
26.3	-3.4	0.86	0.048
26.305	-3.4	0.84	0.021
26.31	-3.5	0.82	0.028
26.315	-3.7	0.80	0.068
26.32	-3.9	0.77	0.066
26.325	-3.9	0.75	0.071
26.33	-4.1	0.73	0.074
26.335	-4.2	0.70	0.058
26.34	-4.3	0.68	0.032
26.345	-4.4	0.65	0.033
26.35	-4.6	0.63	0.084
26.355	-4.7	0.60	0.126
26.36	-4.7	0.57	0.206
26.365	-4.8	0.55	0.384
26.37	-4.9	0.52	0.536
26.375	-4.8	0.49	0.494
26.38	-4.9	0.47	0.346
26.385	-5.0	0.44	0.151
26.39	-4.8	0.41	-0.091
26.395	-4.8	0.39	-0.158
26.4	-4.9	0.36	-0.077
26.405	-4.8	0.33	-0.001
26.41	-4.8	0.31	0.056
26.415	-4.9	0.28	0.103
26.42	-4.9	0.26	0.103
26.425	-4.9	0.23	0.106
26.43	-4.9	0.20	0.080
26.435	-5.0	0.18	0.063
26.44	-4.9	0.15	0.074
26.445	-4.8	0.13	0.065
26.45	-4.9	0.10	0.092
26.455	-4.9	0.08	0.116
26.46	-4.8	0.05	0.098
26.465	-5.0	0.03	0.072
26.47	-5.1	0.00	0.091
26.475	-5.1	-0.02	0.096
26.48	-5.2	-0.05	0.096
26.485	-5.3	-0.08	0.103
26.49	-5.2	-0.10	0.118
26.495	-5.2	-0.13	0.098
26.5	-5.4	-0.15	0.088
26.505	-5.4	-0.18	0.101
26.51	-5.5	-0.21	0.121
26.515	-5.6	-0.23	0.142
26.52	-5.7	-0.26	0.137
26.525	-5.7	-0.29	0.121
26.53	-5.7	-0.31	0.114
26.535	-5.8	-0.34	0.114
26.54	-5.7	-0.37	0.116
26.545	-5.5	-0.39	0.119
26.55	-5.5	-0.42	0.124
26.555	-5.3	-0.44	0.138
26.56	-5.1	-0.47	0.146
26.565	-5.1	-0.49	0.188
26.57	-4.9	-0.51	0.210
26.575	-4.5	-0.53	0.186
26.58	-4.2	-0.55	0.173
26.585	-3.7	-0.57	0.193
26.59	-2.7	-0.58	0.221
26.595	-1.4	-0.58	0.226
26.6	0.4	-0.58	0.244
26.605	3.0	-0.56	0.262
26.61	6.4	-0.52	0.284
26.615	10.2	-0.47	0.321
26.62	14.4	-0.40	0.314
26.625	19.0	-0.30	0.349
26.63	23.4	-0.18	0.354
26.635	27.6	-0.04	0.343
26.64	31.6	0.12	0.339
26.645	35.0	0.29	0.356
26.65	37.6	0.48	0.356
26.655	39.8	0.67	0.354
26.66	41.4	0.88	0.369
26.665	42.1	1.08	0.339
26.67	42.2	1.29	0.326
26.675	41.8	1.49	0.315
26.68	40.5	1.69	0.302
26.685	38.7	1.87	0.268
26.69	36.3	2.04	0.231
26.695	33.4	2.20	0.173
26.7	30.0	2.34	0.118
26.705	26.5	2.46	0.103
26.71	22.8	2.56	0.084
26.715	18.8	2.64	0.069
26.72	14.8	2.70	0.052
26.725	11.0	2.75	0.034
26.73	7.1	2.77	0.008
26.735	3.4	2.77	0.023
26.74	0.1	2.76	0.021
26.745	-3.0	2.73	0.008
26.75	-5.8	2.69	0.000
26.755	-8.2	2.63	0.006
26.76	-10.1	2.57	0.005
26.765	-11.7	2.50	-0.007
26.77	-12.9	2.42	-0.003
26.775	-13.4	2.34	0.024
26.78	-13.7	2.26	0.024
26.785	-13.7	2.18	0.008
26.79	-13.2	2.10	0.014
26.795	-12.7	2.03	0.011
26.8	-12.2	1.96	0.007
26.805	-11.5	1.89	0.021
26.81	-11.0	1.83	0.025
26.815	-10.7	1.76	0.026
26.82	-10.4	1.70	0.041
